0.000	954.0
0.001	953.0
0.002	952.0
0.003	951.0
0.004	950.0
0.005	949.0
0.006	948.0
0.007	947.0
0.008	946.0
0.009	945.0
0.010	944.0
0.011	943.0
0.012	942.0
0.013	941.0
0.014	940.0
0.015	939.0
0.016	938.0
0.017	937.0
0.018	936.0
0.019	935.0
0.020	934.0
0.021	933.0
0.022	932.0
0.023	931.0
0.024	930.0
0.025	929.0
0.026	928.0
0.027	927.0
0.028	926.0
0.029	925.0
0.030	924.0
0.031	923.0
0.032	922.0
0.033	921.0
0.034	920.0
0.035	919.0
0.036	918.0
0.037	917.0
0.038	916.0
0.039	915.0
0.040	914.0
0.041	913.0
0.042	912.0
0.043	911.0
0.044	910.0
0.045	909.0
0.046	908.0
0.047	907.0
0.048	906.0
0.049	905.0
0.050	904.0
0.051	903.0
0.052	902.0
0.053	901.0
0.054	900.0
0.055	899.0
0.056	898.0
0.057	897.0
0.058	896.0
0.059	895.0
0.060	894.0
0.061	893.0
0.062	892.0
0.063	891.0
0.064	890.0
0.065	889.0
0.066	888.0
0.067	887.0
0.068	886.0
0.069	885.0
0.070	884.0
0.071	883.0
0.072	882.0
0.073	881.0
0.074	880.0
0.075	879.0
0.076	878.0
0.077	877.0
0.078	876.0
0.079	875.0
0.080	874.0
0.081	873.0
0.082	872.0
0.083	871.0
0.084	870.0
0.085	869.0
0.086	868.0
0.087	867.0
0.088	866.0
0.089	865.0
0.090	864.0
0.091	863.0
0.092	862.0
0.093	861.0
0.094	860.0
0.095	859.0
0.096	858.0
0.097	857.0
0.098	856.0
0.099	855.0
0.100	854.0
0.101	853.0
0.102	852.0
0.103	851.0
0.104	850.0
0.105	849.0
0.106	848.0
0.107	847.0
0.108	846.0
0.109	845.0
0.110	844.0
0.111	843.0
0.112	842.0
0.113	841.0
0.114	840.0
0.115	839.0
0.116	838.0
0.117	837.0
0.118	836.0
0.119	835.0
0.120	834.0
0.121	833.0
0.122	832.0
0.123	831.0
0.124	830.0
0.125	829.0
0.126	828.0
0.127	827.0
0.128	826.0
0.129	825.0
0.130	824.0
0.131	823.0
0.132	822.0
0.133	821.0
0.134	820.0
0.135	819.0
0.136	818.0
0.137	817.0
0.138	816.0
0.139	815.0
0.140	814.0
0.141	813.0
0.142	812.0
0.143	811.0
0.144	810.0
0.145	809.0
0.146	808.0
0.147	807.0
0.148	806.0
0.149	805.0
0.150	804.0
0.151	803.0
0.152	802.0
0.153	801.0
0.154	800.0
0.155	799.0
0.156	798.0
0.157	797.0
0.158	796.0
0.159	795.0
0.160	794.0
0.161	793.0
0.162	792.0
0.163	791.0
0.164	790.0
0.165	789.0
0.166	788.0
0.167	787.0
0.168	786.0
0.169	785.0
0.170	784.0
0.171	783.0
0.172	782.0
0.173	781.0
0.174	780.0
0.175	779.0
0.176	778.0
0.177	777.0
0.178	776.0
0.179	775.0
0.180	774.0
0.181	773.0
0.182	772.0
0.183	771.0
0.184	770.0
0.185	769.0
0.186	768.0
0.187	767.0
0.188	766.0
0.189	765.0
0.190	764.0
0.191	763.0
0.192	762.0
0.193	761.0
0.194	760.0
0.195	759.0
0.196	758.0
0.197	757.0
0.198	756.0
0.199	755.0
0.200	754.0
0.201	753.0
0.202	752.0
0.203	751.0
0.204	750.0
0.205	749.0
0.206	748.0
0.207	747.0
0.208	746.0
0.209	745.0
0.210	744.0
0.211	743.0
0.212	742.0
0.213	741.0
0.214	740.0
0.215	739.0
0.216	738.0
0.217	737.0
0.218	736.0
0.219	735.0
0.220	734.0
0.221	733.0
0.222	732.0
0.223	731.0
0.224	730.0
0.225	729.0
0.226	728.0
0.227	727.0
0.228	726.0
0.229	725.0
0.230	724.0
0.231	723.0
0.232	722.0
0.233	721.0
0.234	720.0
0.235	719.0
0.236	718.0
0.237	717.0
0.238	716.0
0.239	715.0
0.240	714.0
0.241	713.0
0.242	712.0
0.243	711.0
0.244	710.0
0.245	709.0
0.246	708.0
0.247	707.0
0.248	706.0
0.249	705.0
0.250	704.0
0.251	703.0
0.252	702.0
0.253	701.0
0.254	700.0
0.255	699.0
0.256	698.0
0.257	697.0
0.258	696.0
0.259	695.0
0.260	694.0
0.261	693.0
0.262	692.0
0.263	691.0
0.264	690.0
0.265	689.0
0.266	688.0
0.267	687.0
0.268	686.0
0.269	685.0
0.270	684.0
0.271	683.0
0.272	682.0
0.273	681.0
0.274	680.0
0.275	679.0
0.276	678.0
0.277	677.0
0.278	676.0
0.279	675.0
0.280	674.0
0.281	673.0
0.282	672.0
0.283	671.0
0.284	670.0
0.285	669.0
0.286	668.0
0.287	667.0
0.288	666.0
0.289	665.0
0.290	664.0
0.291	663.0
0.292	662.0
0.293	661.0
0.294	660.0
0.295	659.0
0.296	658.0
0.297	657.0
0.298	656.0
0.299	655.0
0.300	654.0
0.301	653.0
0.302	652.0
0.303	651.0
0.304	650.0
0.305	649.0
0.306	648.0
0.307	647.0
0.308	646.0
0.309	645.0
0.310	644.0
0.311	643.0
0.312	642.0
0.313	641.0
0.314	640.0
0.315	639.0
0.316	638.0
0.317	637.0
0.318	636.0
0.319	635.0
0.320	634.0
0.321	633.0
0.322	632.0
0.323	631.0
0.324	630.0
0.325	629.0
0.326	628.0
0.327	627.0
0.328	626.0
0.329	625.0
0.330	624.0
0.331	623.0
0.332	622.0
0.333	621.0
0.334	620.0
0.335	619.0
0.336	618.0
0.337	617.0
0.338	616.0
0.339	615.0
0.340	614.0
0.341	613.0
0.342	612.0
0.343	611.0
0.344	610.0
0.345	609.0
0.346	608.0
0.347	607.0
0.348	606.0
0.349	605.0
0.350	604.0
0.351	603.0
0.352	602.0
0.353	601.0
0.354	600.0
0.355	599.0
0.356	598.0
0.357	597.0
0.358	596.0
0.359	595.0
0.360	594.0
0.361	593.0
0.362	592.0
0.363	591.0
0.364	590.0
0.365	589.0
0.366	588.0
0.367	587.0
0.368	586.0
0.369	585.0
0.370	584.0
0.371	583.0
0.372	582.0
0.373	581.0
0.374	580.0
0.375	579.0
0.376	578.0
0.377	577.0
0.378	576.0
0.379	575.0
0.380	574.0
0.381	573.0
0.382	572.0
0.383	571.0
0.384	570.0
0.385	569.0
0.386	568.0
0.387	567.0
0.388	566.0
0.389	565.0
0.390	564.0
0.391	563.0
0.392	562.0
0.393	561.0
0.394	560.0
0.395	559.0
0.396	558.0
0.397	557.0
0.398	556.0
0.399	555.0
0.400	554.0
0.401	553.0
0.402	552.0
0.403	551.0
0.404	550.0
0.405	549.0
0.406	548.0
0.407	547.0
0.408	546.0
0.409	545.0
0.410	544.0
0.411	543.0
0.412	542.0
0.413	541.0
0.414	540.0
0.415	539.0
0.416	538.0
0.417	537.0
0.418	536.0
0.419	535.0
0.420	534.0
0.421	533.0
0.422	532.0
0.423	531.0
0.424	530.0
0.425	529.0
0.426	528.0
0.427	527.0
0.428	526.0
0.429	525.0
0.430	524.0
0.431	523.0
0.432	522.0
0.433	521.0
0.434	520.0
0.435	519.0
0.436	518.0
0.437	517.0
0.438	516.0
0.439	515.0
0.440	514.0
0.441	513.0
0.442	512.0
0.443	511.0
0.444	510.0
0.445	509.0
0.446	508.0
0.447	507.0
0.448	506.0
0.449	505.0
0.450	504.0
0.451	503.0
0.452	502.0
0.453	501.0
0.454	500.0
0.455	499.0
0.456	498.0
0.457	497.0
0.458	496.0
0.459	495.0
0.460	494.0
0.461	493.0
0.462	492.0
0.463	491.0
0.464	490.0
0.465	489.0
0.466	488.0
0.467	487.0
0.468	486.0
0.469	485.0
0.470	484.0
0.471	483.0
0.472	482.0
0.473	481.0
0.474	480.0
0.475	479.0
0.476	478.0
0.477	477.0
0.478	476.0
0.479	475.0
0.480	474.0
0.481	473.0
0.482	472.0
0.483	471.0
0.484	470.0
0.485	469.0
0.486	468.0
0.487	467.0
0.488	466.0
0.489	465.0
0.490	464.0
0.491	463.0
0.492	462.0
0.493	461.0
0.494	460.0
0.495	459.0
0.496	458.0
0.497	457.0
0.498	456.0
0.499	455.0
0.500	454.0
0.501	453.0
0.502	452.0
0.503	451.0
0.504	450.0
0.505	449.0
0.506	448.0
0.507	447.0
0.508	446.0
0.509	445.0
0.510	444.0
0.511	443.0
0.512	442.0
0.513	441.0
0.514	440.0
0.515	439.0
0.516	438.0
0.517	437.0
0.518	436.0
0.519	435.0
0.520	434.0
0.521	433.0
0.522	432.0
0.523	431.0
0.524	430.0
0.525	429.0
0.526	428.0
0.527	427.0
0.528	426.0
0.529	425.0
0.530	424.0
0.531	423.0
0.532	422.0
0.533	421.0
0.534	420.0
0.535	419.0
0.536	418.0
0.537	417.0
0.538	416.0
0.539	415.0
0.540	414.0
0.541	413.0
0.542	412.0
0.543	411.0
0.544	410.0
0.545	409.0
0.546	408.0
0.547	407.0
0.548	406.0
0.549	405.0
0.550	404.0
0.551	403.0
0.552	402.0
0.553	401.0
0.554	400.0
0.555	399.0
0.556	398.0
0.557	397.0
0.558	396.0
0.559	395.0
0.560	394.0
0.561	393.0
0.562	392.0
0.563	391.0
0.564	390.0
0.565	389.0
0.566	388.0
0.567	387.0
0.568	386.0
0.569	385.0
0.570	384.0
0.571	383.0
0.572	382.0
0.573	381.0
0.574	380.0
0.575	379.0
0.576	378.0
0.577	377.0
0.578	376.0
0.579	375.0
0.580	374.0
0.581	373.0
0.582	372.0
0.583	371.0
0.584	370.0
0.585	369.0
0.586	368.0
0.587	367.0
0.588	366.0
0.589	365.0
0.590	364.0
0.591	363.0
0.592	362.0
0.593	361.0
0.594	360.0
0.595	359.0
0.596	358.0
0.597	357.0
0.598	356.0
0.599	355.0
0.600	354.0
0.601	353.0
0.602	352.0
0.603	351.0
0.604	350.0
0.605	349.0
0.606	348.0
0.607	347.0
0.608	346.0
0.609	345.0
0.610	344.0
0.611	343.0
0.612	342.0
0.613	341.0
0.614	340.0
0.615	339.0
0.616	338.0
0.617	337.0
0.618	336.0
0.619	335.0
0.620	334.0
0.621	333.0
0.622	332.0
0.623	331.0
0.624	330.0
0.625	329.0
0.626	328.0
0.627	327.0
0.628	326.0
0.629	325.0
0.630	324.0
0.631	323.0
0.632	322.0
0.633	321.0
0.634	320.0
0.635	319.0
0.636	318.0
0.637	317.0
0.638	316.0
0.639	315.0
0.640	314.0
0.641	313.0
0.642	312.0
0.643	311.0
0.644	310.0
0.645	309.0
0.646	308.0
0.647	307.0
0.648	306.0
0.649	305.0
0.650	304.0
0.651	303.0
0.652	302.0
0.653	301.0
0.654	300.0
0.655	299.0
0.656	298.0
0.657	297.0
0.658	296.0
0.659	295.0
0.660	294.0
0.661	293.0
0.662	292.0
0.663	291.0
0.664	290.0
0.665	289.0
0.666	288.0
0.667	287.0
0.668	286.0
0.669	285.0
0.670	284.0
0.671	283.0
0.672	282.0
0.673	281.0
0.674	280.0
0.675	279.0
0.676	278.0
0.677	277.0
0.678	276.0
0.679	275.0
0.680	274.0
0.681	273.0
0.682	272.0
0.683	271.0
0.684	270.0
0.685	269.0
0.686	268.0
0.687	267.0
0.688	266.0
0.689	265.0
0.690	264.0
0.691	263.0
0.692	262.0
0.693	261.0
0.694	260.0
0.695	259.0
0.696	258.0
0.697	257.0
0.698	256.0
0.699	255.0
0.700	254.0
0.701	253.0
0.702	252.0
0.703	251.0
0.704	250.0
0.705	249.0
0.706	248.0
0.707	247.0
0.708	246.0
0.709	245.0
0.710	244.0
0.711	243.0
0.712	242.0
0.713	241.0
0.714	240.0
0.715	239.0
0.716	238.0
0.717	237.0
0.718	236.0
0.719	235.0
0.720	234.0
0.721	233.0
0.722	232.0
0.723	231.0
0.724	230.0
0.725	229.0
0.726	228.0
0.727	227.0
0.728	226.0
0.729	225.0
0.730	224.0
0.731	223.0
0.732	222.0
0.733	221.0
0.734	220.0
0.735	219.0
0.736	218.0
0.737	217.0
0.738	216.0
0.739	215.0
0.740	214.0
0.741	213.0
0.742	212.0
0.743	211.0
0.744	210.0
0.745	209.0
0.746	208.0
0.747	207.0
0.748	206.0
0.749	205.0
0.750	204.0
0.751	203.0
0.752	202.0
0.753	201.0
0.754	200.0
0.755	199.0
0.756	198.0
0.757	197.0
0.758	196.0
0.759	195.0
0.760	194.0
0.761	193.0
0.762	192.0
0.763	191.0
0.764	190.0
0.765	189.0
0.766	188.0
0.767	187.0
0.768	186.0
0.769	185.0
0.770	184.0
0.771	183.0
0.772	182.0
0.773	181.0
0.774	180.0
0.775	179.0
0.776	178.0
0.777	177.0
0.778	176.0
0.779	175.0
0.780	174.0
0.781	173.0
0.782	172.0
0.783	171.0
0.784	170.0
0.785	169.0
0.786	168.0
0.787	167.0
0.788	166.0
0.789	165.0
0.790	164.0
0.791	163.0
0.792	162.0
0.793	161.0
0.794	160.0
0.795	159.0
0.796	158.0
0.797	157.0
0.798	156.0
0.799	155.0
0.800	154.0
0.801	153.0
0.802	152.0
0.803	151.0
0.804	150.0
0.805	149.0
0.806	148.0
0.807	147.0
0.808	146.0
0.809	145.0
0.810	144.0
0.811	143.0
0.812	142.0
0.813	141.0
0.814	140.0
0.815	139.0
0.816	138.0
0.817	137.0
0.818	136.0
0.819	135.0
0.820	134.0
0.821	133.0
0.822	132.0
0.823	131.0
0.824	130.0
0.825	129.0
0.826	128.0
0.827	127.0
0.828	126.0
0.829	125.0
0.830	124.0
0.831	123.0
0.832	122.0
0.833	121.0
0.834	120.0
0.835	119.0
0.836	118.0
0.837	117.0
0.838	116.0
0.839	115.0
0.840	114.0
0.841	113.0
0.842	112.0
0.843	111.0
0.844	110.0
0.845	109.0
0.846	108.0
0.847	107.0
0.848	106.0
0.849	105.0
0.850	104.0
0.851	103.0
0.852	102.0
0.853	101.0
0.854	100.0
0.855	99.0
0.856	98.0
0.857	97.0
0.858	96.0
0.859	95.0
0.860	94.0
0.861	93.0
0.862	92.0
0.863	91.0
0.864	90.0
0.865	89.0
0.866	88.0
0.867	87.0
0.868	86.0
0.869	85.0
0.870	84.0
0.871	83.0
0.872	82.0
0.873	81.0
0.874	80.0
0.875	79.0
0.876	78.0
0.877	77.0
0.878	76.0
0.879	75.0
0.880	74.0
0.881	73.0
0.882	72.0
0.883	71.0
0.884	70.0
0.885	69.0
0.886	68.0
0.887	67.0
0.888	66.0
0.889	65.0
0.890	64.0
0.891	63.0
0.892	62.0
0.893	61.0
0.894	60.0
0.895	59.0
0.896	58.0
0.897	57.0
0.898	56.0
0.899	55.0
0.900	54.0
0.901	53.0
0.902	52.0
0.903	51.0
0.904	50.0
0.905	49.0
0.906	48.0
0.907	47.0
0.908	46.0
0.909	45.0
0.910	44.0
0.911	43.0
0.912	42.0
0.913	41.0
0.914	40.0
0.915	39.0
0.916	38.0
0.917	37.0
0.918	36.0
0.919	35.0
0.920	34.0
0.921	33.0
0.922	32.0
0.923	31.0
0.924	30.0
0.925	29.0
0.926	28.0
0.927	27.0
0.928	26.0
0.929	25.0
0.930	24.0
0.931	23.0
0.932	22.0
0.933	21.0
0.934	20.0
0.935	19.0
0.936	18.0
0.937	17.0
0.938	16.0
0.939	15.0
0.940	14.0
0.941	13.0
0.942	12.0
0.943	11.0
0.944	10.0
0.945	9.0
0.946	8.0
0.947	7.0
0.948	6.0
0.949	5.0
0.950	4.0
0.951	3.0
0.952	2.0
0.953	1.0
0.954	0.0
0.955	1.0
0.956	2.0
0.957	3.0
0.958	4.0
0.959	5.0
0.960	6.0
0.961	7.0
0.962	8.0
0.963	9.0
0.964	10.0
0.965	11.0
0.966	12.0
0.967	13.0
0.968	14.0
0.969	15.0
0.970	16.0
0.971	17.0
0.972	18.0
0.973	19.0
0.974	20.0
0.975	21.0
0.976	22.0
0.977	23.0
0.978	24.0
0.979	25.0
0.980	26.0
0.981	27.0
0.982	28.0
0.983	29.0
0.984	30.0
0.985	31.0
0.986	32.0
0.987	33.0
0.988	34.0
0.989	35.0
0.990	36.0
0.991	37.0
0.992	38.0
0.993	39.0
0.994	40.0
0.995	41.0
0.996	42.0
0.997	43.0
0.998	44.0
0.999	45.0
1.000	46.0
1.001	47.0
1.002	48.0
1.003	49.0
1.004	50.0
1.005	51.0
1.006	52.0
1.007	53.0
1.008	54.0
1.009	55.0
1.010	56.0
1.011	57.0
1.012	58.0
1.013	59.0
1.014	60.0
1.015	61.0
1.016	62.0
1.017	63.0
1.018	64.0
1.019	65.0
1.020	66.0
1.021	67.0
1.022	68.0
1.023	69.0
1.024	70.0
1.025	71.0
1.026	72.0
1.027	73.0
1.028	74.0
1.029	75.0
1.030	76.0
1.031	77.0
1.032	78.0
1.033	79.0
1.034	80.0
1.035	81.0
1.036	82.0
1.037	83.0
1.038	84.0
1.039	85.0
1.040	86.0
1.041	87.0
1.042	88.0
1.043	89.0
1.044	90.0
1.045	91.0
1.046	92.0
1.047	93.0
1.048	94.0
1.049	95.0
1.050	96.0
1.051	97.0
1.052	98.0
1.053	99.0
1.054	100.0
1.055	101.0
1.056	102.0
1.057	103.0
1.058	104.0
1.059	105.0
1.060	106.0
1.061	107.0
1.062	108.0
1.063	109.0
1.064	110.0
1.065	111.0
1.066	112.0
1.067	113.0
1.068	114.0
1.069	115.0
1.070	116.0
1.071	117.0
1.072	118.0
1.073	119.0
1.074	120.0
1.075	121.0
1.076	122.0
1.077	123.0
1.078	124.0
1.079	125.0
1.080	126.0
1.081	127.0
1.082	128.0
1.083	129.0
1.084	130.0
1.085	131.0
1.086	132.0
1.087	133.0
1.088	134.0
1.089	135.0
1.090	136.0
1.091	137.0
1.092	138.0
1.093	139.0
1.094	140.0
1.095	141.0
1.096	142.0
1.097	143.0
1.098	144.0
1.099	145.0
1.100	146.0
1.101	147.0
1.102	148.0
1.103	149.0
1.104	150.0
1.105	151.0
1.106	152.0
1.107	153.0
1.108	154.0
1.109	155.0
1.110	156.0
1.111	157.0
1.112	158.0
1.113	159.0
1.114	160.0
1.115	161.0
1.116	162.0
1.117	163.0
1.118	164.0
1.119	165.0
1.120	166.0
1.121	167.0
1.122	168.0
1.123	169.0
1.124	170.0
1.125	171.0
1.126	172.0
1.127	173.0
1.128	174.0
1.129	175.0
1.130	176.0
1.131	177.0
1.132	178.0
1.133	179.0
1.134	180.0
1.135	181.0
1.136	182.0
1.137	183.0
1.138	184.0
1.139	185.0
1.140	186.0
1.141	187.0
1.142	188.0
1.143	189.0
1.144	190.0
1.145	191.0
1.146	192.0
1.147	193.0
1.148	194.0
1.149	195.0
1.150	196.0
1.151	197.0
1.152	198.0
1.153	199.0
1.154	200.0
1.155	201.0
1.156	202.0
1.157	203.0
1.158	204.0
1.159	205.0
1.160	206.0
1.161	207.0
1.162	208.0
1.163	209.0
1.164	210.0
1.165	211.0
1.166	212.0
1.167	213.0
1.168	214.0
1.169	215.0
1.170	216.0
1.171	217.0
1.172	218.0
1.173	219.0
1.174	220.0
1.175	221.0
1.176	222.0
1.177	223.0
1.178	224.0
1.179	225.0
1.180	226.0
1.181	227.0
1.182	228.0
1.183	229.0
1.184	230.0
1.185	231.0
1.186	232.0
1.187	233.0
1.188	234.0
1.189	235.0
1.190	236.0
1.191	237.0
1.192	238.0
1.193	239.0
1.194	240.0
1.195	241.0
1.196	242.0
1.197	243.0
1.198	244.0
1.199	245.0
1.200	246.0
1.201	247.0
1.202	248.0
1.203	249.0
1.204	250.0
1.205	251.0
1.206	252.0
1.207	253.0
1.208	254.0
1.209	255.0
1.210	256.0
1.211	257.0
1.212	258.0
1.213	259.0
1.214	260.0
1.215	261.0
1.216	262.0
1.217	263.0
1.218	264.0
1.219	265.0
1.220	266.0
1.221	267.0
1.222	268.0
1.223	269.0
1.224	270.0
1.225	271.0
1.226	272.0
1.227	273.0
1.228	274.0
1.229	275.0
1.230	276.0
1.231	277.0
1.232	278.0
1.233	279.0
1.234	280.0
1.235	281.0
1.236	282.0
1.237	283.0
1.238	284.0
1.239	285.0
1.240	286.0
1.241	287.0
1.242	288.0
1.243	289.0
1.244	290.0
1.245	291.0
1.246	292.0
1.247	293.0
1.248	294.0
1.249	295.0
1.250	296.0
1.251	297.0
1.252	298.0
1.253	299.0
1.254	300.0
1.255	301.0
1.256	302.0
1.257	303.0
1.258	304.0
1.259	305.0
1.260	306.0
1.261	307.0
1.262	308.0
1.263	309.0
1.264	310.0
1.265	311.0
1.266	312.0
1.267	313.0
1.268	314.0
1.269	315.0
1.270	316.0
1.271	317.0
1.272	318.0
1.273	319.0
1.274	320.0
1.275	321.0
1.276	322.0
1.277	323.0
1.278	324.0
1.279	325.0
1.280	326.0
1.281	327.0
1.282	328.0
1.283	329.0
1.284	330.0
1.285	331.0
1.286	332.0
1.287	333.0
1.288	334.0
1.289	335.0
1.290	336.0
1.291	337.0
1.292	338.0
1.293	339.0
1.294	340.0
1.295	341.0
1.296	342.0
1.297	343.0
1.298	344.0
1.299	345.0
1.300	346.0
1.301	347.0
1.302	348.0
1.303	349.0
1.304	350.0
1.305	351.0
1.306	352.0
1.307	353.0
1.308	354.0
1.309	355.0
1.310	356.0
1.311	357.0
1.312	358.0
1.313	359.0
1.314	360.0
1.315	361.0
1.316	362.0
1.317	363.0
1.318	364.0
1.319	365.0
1.320	366.0
1.321	367.0
1.322	368.0
1.323	369.0
1.324	370.0
1.325	371.0
1.326	372.0
1.327	373.0
1.328	374.0
1.329	375.0
1.330	376.0
1.331	377.0
1.332	378.0
1.333	379.0
1.334	380.0
1.335	381.0
1.336	382.0
1.337	383.0
1.338	384.0
1.339	385.0
1.340	386.0
1.341	387.0
1.342	388.0
1.343	389.0
1.344	390.0
1.345	391.0
1.346	392.0
1.347	393.0
1.348	394.0
1.349	395.0
1.350	396.0
1.351	397.0
1.352	398.0
1.353	399.0
1.354	400.0
1.355	401.0
1.356	402.0
1.357	403.0
1.358	404.0
1.359	405.0
1.360	406.0
1.361	407.0
1.362	408.0
1.363	409.0
1.364	410.0
1.365	411.0
1.366	412.0
1.367	413.0
1.368	414.0
1.369	415.0
1.370	416.0
1.371	417.0
1.372	418.0
1.373	419.0
1.374	420.0
1.375	421.0
1.376	422.0
1.377	423.0
1.378	424.0
1.379	425.0
1.380	426.0
1.381	427.0
1.382	428.0
1.383	429.0
1.384	430.0
1.385	431.0
1.386	432.0
1.387	433.0
1.388	434.0
1.389	435.0
1.390	436.0
1.391	437.0
1.392	438.0
1.393	439.0
1.394	440.0
1.395	441.0
1.396	442.0
1.397	443.0
1.398	444.0
1.399	445.0
1.400	446.0
1.401	447.0
1.402	448.0
1.403	449.0
1.404	450.0
1.405	451.0
1.406	452.0
1.407	453.0
1.408	454.0
1.409	455.0
1.410	456.0
1.411	457.0
1.412	458.0
1.413	459.0
1.414	460.0
1.415	461.0
1.416	462.0
1.417	463.0
1.418	464.0
1.419	465.0
1.420	466.0
1.421	467.0
1.422	468.0
1.423	469.0
1.424	470.0
1.425	471.0
1.426	472.0
1.427	473.0
1.428	474.0
1.429	475.0
1.430	476.0
1.431	477.0
1.432	478.0
1.433	479.0
1.434	480.0
1.435	481.0
1.436	482.0
1.437	483.0
1.438	484.0
1.439	485.0
1.440	486.0
1.441	487.0
1.442	488.0
1.443	489.0
1.444	490.0
1.445	491.0
1.446	492.0
1.447	493.0
1.448	494.0
1.449	495.0
1.450	496.0
1.451	497.0
1.452	498.0
1.453	499.0
1.454	500.0
1.455	501.0
1.456	502.0
1.457	503.0
1.458	504.0
1.459	505.0
1.460	506.0
1.461	507.0
1.462	508.0
1.463	509.0
1.464	510.0
1.465	511.0
1.466	512.0
1.467	513.0
1.468	514.0
1.469	515.0
1.470	516.0
1.471	517.0
1.472	518.0
1.473	519.0
1.474	520.0
1.475	521.0
1.476	522.0
1.477	523.0
1.478	524.0
1.479	525.0
1.480	526.0
1.481	527.0
1.482	528.0
1.483	529.0
1.484	530.0
1.485	531.0
1.486	532.0
1.487	533.0
1.488	534.0
1.489	535.0
1.490	536.0
1.491	537.0
1.492	538.0
1.493	539.0
1.494	540.0
1.495	541.0
1.496	542.0
1.497	543.0
1.498	544.0
1.499	545.0
1.500	546.0
1.501	547.0
1.502	548.0
1.503	549.0
1.504	550.0
1.505	551.0
1.506	552.0
1.507	553.0
1.508	554.0
1.509	555.0
1.510	556.0
1.511	557.0
1.512	558.0
1.513	559.0
1.514	560.0
1.515	561.0
1.516	562.0
1.517	563.0
1.518	564.0
1.519	565.0
1.520	566.0
1.521	567.0
1.522	568.0
1.523	569.0
1.524	570.0
1.525	571.0
1.526	572.0
1.527	573.0
1.528	574.0
1.529	575.0
1.530	576.0
1.531	577.0
1.532	578.0
1.533	579.0
1.534	580.0
1.535	581.0
1.536	582.0
1.537	583.0
1.538	584.0
1.539	585.0
1.540	586.0
1.541	587.0
1.542	588.0
1.543	589.0
1.544	590.0
1.545	591.0
1.546	592.0
1.547	593.0
1.548	594.0
1.549	595.0
1.550	596.0
1.551	597.0
1.552	598.0
1.553	599.0
1.554	600.0
1.555	601.0
1.556	602.0
1.557	603.0
1.558	604.0
1.559	605.0
1.560	606.0
1.561	607.0
1.562	608.0
1.563	609.0
1.564	610.0
1.565	611.0
1.566	612.0
1.567	613.0
1.568	614.0
1.569	615.0
1.570	616.0
1.571	617.0
1.572	618.0
1.573	619.0
1.574	620.0
1.575	621.0
1.576	622.0
1.577	623.0
1.578	624.0
1.579	625.0
1.580	626.0
1.581	627.0
1.582	628.0
1.583	629.0
1.584	630.0
1.585	631.0
1.586	632.0
1.587	633.0
1.588	634.0
1.589	635.0
1.590	636.0
1.591	637.0
1.592	638.0
1.593	639.0
1.594	640.0
1.595	641.0
1.596	642.0
1.597	643.0
1.598	644.0
1.599	645.0
1.600	646.0
1.601	647.0
1.602	648.0
1.603	649.0
1.604	650.0
1.605	651.0
1.606	652.0
1.607	653.0
1.608	654.0
1.609	655.0
1.610	656.0
1.611	657.0
1.612	658.0
1.613	659.0
1.614	660.0
1.615	661.0
1.616	662.0
1.617	663.0
1.618	664.0
1.619	665.0
1.620	666.0
1.621	667.0
1.622	668.0
1.623	669.0
1.624	670.0
1.625	671.0
1.626	672.0
1.627	673.0
1.628	674.0
1.629	675.0
1.630	676.0
1.631	677.0
1.632	678.0
1.633	679.0
1.634	680.0
1.635	681.0
1.636	682.0
1.637	683.0
1.638	684.0
1.639	685.0
1.640	686.0
1.641	687.0
1.642	688.0
1.643	689.0
1.644	690.0
1.645	691.0
1.646	692.0
1.647	693.0
1.648	694.0
1.649	695.0
1.650	696.0
1.651	697.0
1.652	698.0
1.653	699.0
1.654	700.0
1.655	701.0
1.656	702.0
1.657	703.0
1.658	704.0
1.659	705.0
1.660	706.0
1.661	707.0
1.662	708.0
1.663	709.0
1.664	710.0
1.665	711.0
1.666	712.0
1.667	713.0
1.668	714.0
1.669	715.0
1.670	716.0
1.671	717.0
1.672	718.0
1.673	719.0
1.674	720.0
1.675	721.0
1.676	722.0
1.677	723.0
1.678	724.0
1.679	725.0
1.680	726.0
1.681	727.0
1.682	728.0
1.683	729.0
1.684	730.0
1.685	731.0
1.686	732.0
1.687	733.0
1.688	734.0
1.689	735.0
1.690	736.0
1.691	737.0
1.692	738.0
1.693	739.0
1.694	740.0
1.695	741.0
1.696	742.0
1.697	743.0
1.698	744.0
1.699	745.0
1.700	746.0
1.701	747.0
1.702	748.0
1.703	749.0
1.704	750.0
1.705	751.0
1.706	752.0
1.707	753.0
1.708	754.0
1.709	755.0
1.710	756.0
1.711	757.0
1.712	758.0
1.713	759.0
1.714	760.0
1.715	761.0
1.716	762.0
1.717	763.0
1.718	764.0
1.719	765.0
1.720	766.0
1.721	767.0
1.722	768.0
1.723	769.0
1.724	770.0
1.725	771.0
1.726	772.0
1.727	773.0
1.728	774.0
1.729	775.0
1.730	776.0
1.731	777.0
1.732	778.0
1.733	779.0
1.734	780.0
1.735	781.0
1.736	782.0
1.737	783.0
1.738	784.0
1.739	785.0
1.740	786.0
1.741	787.0
1.742	788.0
1.743	789.0
1.744	790.0
1.745	791.0
1.746	792.0
1.747	793.0
1.748	794.0
1.749	795.0
1.750	796.0
1.751	797.0
1.752	798.0
1.753	799.0
1.754	800.0
1.755	801.0
1.756	802.0
1.757	803.0
1.758	804.0
1.759	805.0
1.760	806.0
1.761	807.0
1.762	808.0
1.763	809.0
1.764	810.0
1.765	811.0
1.766	812.0
1.767	813.0
1.768	814.0
1.769	815.0
1.770	816.0
1.771	817.0
1.772	818.0
1.773	819.0
1.774	820.0
1.775	821.0
1.776	822.0
1.777	823.0
1.778	824.0
1.779	825.0
1.780	826.0
1.781	827.0
1.782	828.0
1.783	829.0
1.784	830.0
1.785	831.0
1.786	832.0
1.787	833.0
1.788	834.0
1.789	835.0
1.790	836.0
1.791	837.0
1.792	838.0
1.793	839.0
1.794	840.0
1.795	841.0
1.796	842.0
1.797	843.0
1.798	844.0
1.799	845.0
1.800	846.0
1.801	847.0
1.802	848.0
1.803	849.0
1.804	850.0
1.805	851.0
1.806	852.0
1.807	853.0
1.808	854.0
1.809	855.0
1.810	856.0
1.811	857.0
1.812	858.0
1.813	859.0
1.814	860.0
1.815	861.0
1.816	862.0
1.817	863.0
1.818	864.0
1.819	865.0
1.820	866.0
1.821	867.0
1.822	868.0
1.823	869.0
1.824	870.0
1.825	871.0
1.826	872.0
1.827	873.0
1.828	874.0
1.829	875.0
1.830	876.0
1.831	877.0
1.832	878.0
1.833	879.0
1.834	880.0
1.835	881.0
1.836	882.0
1.837	883.0
1.838	884.0
1.839	885.0
1.840	886.0
1.841	887.0
1.842	888.0
1.843	889.0
1.844	890.0
1.845	891.0
1.846	892.0
1.847	893.0
1.848	894.0
1.849	895.0
1.850	896.0
1.851	897.0
1.852	898.0
1.853	899.0
1.854	900.0
1.855	901.0
1.856	902.0
1.857	903.0
1.858	904.0
1.859	905.0
1.860	906.0
1.861	907.0
1.862	908.0
1.863	909.0
1.864	910.0
1.865	911.0
1.866	912.0
1.867	913.0
1.868	914.0
1.869	915.0
1.870	916.0
1.871	917.0
1.872	918.0
1.873	919.0
1.874	920.0
1.875	921.0
1.876	922.0
1.877	923.0
1.878	924.0
1.879	925.0
1.880	926.0
1.881	927.0
1.882	928.0
1.883	929.0
1.884	930.0
1.885	931.0
1.886	932.0
1.887	933.0
1.888	934.0
1.889	935.0
1.890	936.0
1.891	937.0
1.892	938.0
1.893	939.0
1.894	940.0
1.895	941.0
1.896	942.0
1.897	943.0
1.898	944.0
1.899	945.0
1.900	946.0
1.901	947.0
1.902	948.0
1.903	949.0
1.904	950.0
1.905	951.0
1.906	952.0
1.907	953.0
1.908	954.0
1.909	955.0
1.910	956.0
1.911	957.0
1.912	958.0
1.913	959.0
1.914	960.0
1.915	961.0
1.916	962.0
1.917	963.0
1.918	964.0
1.919	965.0
1.920	966.0
1.921	967.0
1.922	968.0
1.923	969.0
1.924	970.0
1.925	971.0
1.926	972.0
1.927	973.0
1.928	974.0
1.929	975.0
1.930	976.0
1.931	977.0
1.932	978.0
1.933	979.0
1.934	980.0
1.935	981.0
1.936	982.0
1.937	983.0
1.938	984.0
1.939	985.0
1.940	986.0
1.941	987.0
1.942	988.0
1.943	989.0
1.944	990.0
1.945	991.0
1.946	992.0
1.947	993.0
1.948	994.0
1.949	995.0
1.950	996.0
1.951	997.0
1.952	998.0
1.953	999.0
1.954	1000.0
1.955	1001.0
1.956	1002.0
1.957	1003.0
1.958	1004.0
1.959	1005.0
1.960	1006.0
1.961	1007.0
1.962	1008.0
1.963	1009.0
1.964	1010.0
1.965	1011.0
1.966	1012.0
1.967	1013.0
1.968	1014.0
1.969	1015.0
1.970	1016.0
1.971	1017.0
1.972	1018.0
1.973	1019.0
1.974	1020.0
1.975	1021.0
1.976	1022.0
1.977	1023.0
1.978	1024.0
1.979	1025.0
1.980	1026.0
1.981	1027.0
1.982	1028.0
1.983	1029.0
1.984	1030.0
1.985	1031.0
1.986	1032.0
1.987	1033.0
1.988	1034.0
1.989	1035.0
1.990	1036.0
1.991	1037.0
1.992	1038.0
1.993	1039.0
1.994	1040.0
1.995	1041.0
1.996	1042.0
1.997	1043.0
1.998	1044.0
1.999	1045.0
2.000	1046.0
2.001	1047.0
2.002	1048.0
2.003	1049.0
2.004	1050.0
2.005	1051.0
2.006	1052.0
2.007	1053.0
2.008	1054.0
2.009	1055.0
2.010	1056.0
2.011	1057.0
2.012	1058.0
2.013	1059.0
2.014	1060.0
2.015	1061.0
2.016	1062.0
2.017	1063.0
2.018	1064.0
2.019	1065.0
2.020	1066.0
2.021	1067.0
2.022	1068.0
2.023	1069.0
2.024	1070.0
2.025	1071.0
2.026	1072.0
2.027	1073.0
2.028	1074.0
2.029	1075.0
2.030	1076.0
2.031	1077.0
2.032	1078.0
2.033	1079.0
2.034	1080.0
2.035	1081.0
2.036	1082.0
2.037	1083.0
2.038	1084.0
2.039	1085.0
2.040	1086.0
2.041	1087.0
2.042	1088.0
2.043	1089.0
2.044	1090.0
2.045	1091.0
2.046	1092.0
2.047	1093.0
2.048	1094.0
2.049	1095.0
2.050	1096.0
2.051	1097.0
2.052	1098.0
2.053	1099.0
2.054	1100.0
2.055	1101.0
2.056	1102.0
2.057	1103.0
2.058	1104.0
2.059	1105.0
2.060	1106.0
2.061	1107.0
2.062	1108.0
2.063	1109.0
2.064	1110.0
2.065	1111.0
2.066	1112.0
2.067	1113.0
2.068	1114.0
2.069	1115.0
2.070	1116.0
2.071	1117.0
2.072	1118.0
2.073	1119.0
2.074	1120.0
2.075	1121.0
2.076	1122.0
2.077	1123.0
2.078	1124.0
2.079	1125.0
2.080	1126.0
2.081	1127.0
2.082	1128.0
2.083	1129.0
2.084	1130.0
2.085	1131.0
2.086	1132.0
2.087	1133.0
2.088	1134.0
2.089	1135.0
2.090	1136.0
2.091	1137.0
2.092	1138.0
2.093	1139.0
2.094	1140.0
2.095	1141.0
2.096	1142.0
2.097	1143.0
2.098	1144.0
2.099	1145.0
2.100	1146.0
2.101	1147.0
2.102	1148.0
2.103	1149.0
2.104	1150.0
2.105	1151.0
2.106	1152.0
2.107	1153.0
2.108	1154.0
2.109	1155.0
2.110	1156.0
2.111	1157.0
2.112	1158.0
2.113	1159.0
2.114	1160.0
2.115	1161.0
2.116	1162.0
2.117	1163.0
2.118	1164.0
2.119	1165.0
2.120	1166.0
2.121	1167.0
2.122	1168.0
2.123	1169.0
2.124	1170.0
2.125	1171.0
2.126	1172.0
2.127	1173.0
2.128	1174.0
2.129	1175.0
2.130	1176.0
2.131	1177.0
2.132	1178.0
2.133	1179.0
2.134	1180.0
2.135	1181.0
2.136	1182.0
2.137	1183.0
2.138	1184.0
2.139	1185.0
2.140	1186.0
2.141	1187.0
2.142	1188.0
2.143	1189.0
2.144	1190.0
2.145	1191.0
2.146	1192.0
2.147	1193.0
2.148	1194.0
2.149	1195.0
2.150	1196.0
2.151	1197.0
2.152	1198.0
2.153	1199.0
2.154	1200.0
2.155	1201.0
2.156	1202.0
2.157	1203.0
2.158	1204.0
2.159	1205.0
2.160	1206.0
2.161	1207.0
2.162	1208.0
2.163	1209.0
2.164	1210.0
2.165	1211.0
2.166	1212.0
2.167	1213.0
2.168	1214.0
2.169	1215.0
2.170	1216.0
2.171	1217.0
2.172	1218.0
2.173	1219.0
2.174	1220.0
2.175	1221.0
2.176	1222.0
2.177	1223.0
2.178	1224.0
2.179	1225.0
2.180	1226.0
2.181	1227.0
2.182	1228.0
2.183	1229.0
2.184	1230.0
2.185	1231.0
2.186	1232.0
2.187	1233.0
2.188	1234.0
2.189	1235.0
2.190	1236.0
2.191	1237.0
2.192	1238.0
2.193	1239.0
2.194	1240.0
2.195	1241.0
2.196	1242.0
2.197	1243.0
2.198	1244.0
2.199	1245.0
2.200	1246.0
2.201	1247.0
2.202	1248.0
2.203	1249.0
2.204	1250.0
2.205	1251.0
2.206	1252.0
2.207	1253.0
2.208	1254.0
2.209	1255.0
2.210	1256.0
2.211	1257.0
2.212	1258.0
2.213	1259.0
2.214	1260.0
2.215	1261.0
2.216	1262.0
2.217	1263.0
2.218	1264.0
2.219	1265.0
2.220	1266.0
2.221	1267.0
2.222	1268.0
2.223	1269.0
2.224	1270.0
2.225	1271.0
2.226	1272.0
2.227	1273.0
2.228	1274.0
2.229	1275.0
2.230	1276.0
2.231	1277.0
2.232	1278.0
2.233	1279.0
2.234	1280.0
2.235	1281.0
2.236	1282.0
2.237	1283.0
2.238	1284.0
2.239	1285.0
2.240	1286.0
2.241	1287.0
2.242	1288.0
2.243	1289.0
2.244	1290.0
2.245	1291.0
2.246	1292.0
2.247	1293.0
2.248	1294.0
2.249	1295.0
2.250	1296.0
2.251	1297.0
2.252	1298.0
2.253	1299.0
2.254	1300.0
2.255	1301.0
2.256	1302.0
2.257	1303.0
2.258	1304.0
2.259	1305.0
2.260	1306.0
2.261	1307.0
2.262	1308.0
2.263	1309.0
2.264	1310.0
2.265	1311.0
2.266	1312.0
2.267	1313.0
2.268	1314.0
2.269	1315.0
2.270	1316.0
2.271	1317.0
2.272	1318.0
2.273	1319.0
2.274	1320.0
2.275	1321.0
2.276	1322.0
2.277	1323.0
2.278	1324.0
2.279	1325.0
2.280	1326.0
2.281	1327.0
2.282	1328.0
2.283	1329.0
2.284	1330.0
2.285	1331.0
2.286	1332.0
2.287	1333.0
2.288	1334.0
2.289	1335.0
2.290	1336.0
2.291	1337.0
2.292	1338.0
2.293	1339.0
2.294	1340.0
2.295	1341.0
2.296	1342.0
2.297	1343.0
2.298	1344.0
2.299	1345.0
2.300	1346.0
2.301	1347.0
2.302	1348.0
2.303	1349.0
2.304	1350.0
2.305	1351.0
2.306	1352.0
2.307	1353.0
2.308	1354.0
2.309	1355.0
2.310	1356.0
2.311	1357.0
2.312	1358.0
2.313	1359.0
2.314	1360.0
2.315	1361.0
2.316	1362.0
2.317	1363.0
2.318	1364.0
2.319	1365.0
2.320	1366.0
2.321	1367.0
2.322	1368.0
2.323	1369.0
2.324	1370.0
2.325	1371.0
2.326	1372.0
2.327	1373.0
2.328	1374.0
2.329	1375.0
2.330	1376.0
2.331	1377.0
2.332	1378.0
2.333	1379.0
2.334	1380.0
2.335	1381.0
2.336	1382.0
2.337	1383.0
2.338	1384.0
2.339	1385.0
2.340	1386.0
2.341	1387.0
2.342	1388.0
2.343	1389.0
2.344	1390.0
2.345	1391.0
2.346	1392.0
2.347	1393.0
2.348	1394.0
2.349	1395.0
2.350	1396.0
2.351	1397.0
2.352	1398.0
2.353	1399.0
2.354	1400.0
2.355	1401.0
2.356	1402.0
2.357	1403.0
2.358	1404.0
2.359	1405.0
2.360	1406.0
2.361	1407.0
2.362	1408.0
2.363	1409.0
2.364	1410.0
2.365	1411.0
2.366	1412.0
2.367	1413.0
2.368	1414.0
2.369	1415.0
2.370	1416.0
2.371	1417.0
2.372	1418.0
2.373	1419.0
2.374	1420.0
2.375	1421.0
2.376	1422.0
2.377	1423.0
2.378	1424.0
2.379	1425.0
2.380	1426.0
2.381	1427.0
2.382	1428.0
2.383	1429.0
2.384	1430.0
2.385	1431.0
2.386	1432.0
2.387	1433.0
2.388	1434.0
2.389	1435.0
2.390	1436.0
2.391	1437.0
2.392	1438.0
2.393	1439.0
2.394	1440.0
2.395	1441.0
2.396	1442.0
2.397	1443.0
2.398	1444.0
2.399	1445.0
2.400	1446.0
2.401	1447.0
2.402	1448.0
2.403	1449.0
2.404	1450.0
2.405	1451.0
2.406	1452.0
2.407	1453.0
2.408	1454.0
2.409	1455.0
2.410	1456.0
2.411	1457.0
2.412	1458.0
2.413	1459.0
2.414	1460.0
2.415	1461.0
2.416	1462.0
2.417	1463.0
2.418	1464.0
2.419	1465.0
2.420	1466.0
2.421	1467.0
2.422	1468.0
2.423	1469.0
2.424	1470.0
2.425	1471.0
2.426	1472.0
2.427	1473.0
2.428	1474.0
2.429	1475.0
2.430	1476.0
2.431	1477.0
2.432	1478.0
2.433	1479.0
2.434	1480.0
2.435	1481.0
2.436	1482.0
2.437	1483.0
2.438	1484.0
2.439	1485.0
2.440	1486.0
2.441	1487.0
2.442	1488.0
2.443	1489.0
2.444	1490.0
2.445	1491.0
2.446	1492.0
2.447	1493.0
2.448	1494.0
2.449	1495.0
2.450	1496.0
2.451	1497.0
2.452	1498.0
2.453	1499.0
2.454	1500.0
2.455	1501.0
2.456	1502.0
2.457	1503.0
2.458	1504.0
2.459	1505.0
2.460	1506.0
2.461	1507.0
2.462	1508.0
2.463	1509.0
2.464	1510.0
2.465	1511.0
2.466	1512.0
2.467	1513.0
2.468	1514.0
2.469	1515.0
2.470	1516.0
2.471	1517.0
2.472	1518.0
2.473	1519.0
2.474	1520.0
2.475	1521.0
2.476	1522.0
2.477	1523.0
2.478	1524.0
2.479	1525.0
2.480	1526.0
2.481	1527.0
2.482	1528.0
2.483	1529.0
2.484	1530.0
2.485	1531.0
2.486	1532.0
2.487	1533.0
2.488	1534.0
2.489	1535.0
2.490	1536.0
2.491	1537.0
2.492	1538.0
2.493	1539.0
2.494	1540.0
2.495	1541.0
2.496	1542.0
2.497	1543.0
2.498	1544.0
2.499	1545.0
2.500	1546.0
2.501	1547.0
2.502	1548.0
2.503	1549.0
2.504	1550.0
2.505	1551.0
2.506	1552.0
2.507	1553.0
2.508	1554.0
2.509	1555.0
2.510	1556.0
2.511	1557.0
2.512	1558.0
2.513	1559.0
2.514	1560.0
2.515	1561.0
2.516	1562.0
2.517	1563.0
2.518	1564.0
2.519	1565.0
2.520	1566.0
2.521	1567.0
2.522	1568.0
2.523	1569.0
2.524	1570.0
2.525	1571.0
2.526	1572.0
2.527	1573.0
2.528	1574.0
2.529	1575.0
2.530	1576.0
2.531	1577.0
2.532	1578.0
2.533	1579.0
2.534	1580.0
2.535	1581.0
2.536	1582.0
2.537	1583.0
2.538	1584.0
2.539	1585.0
2.540	1586.0
2.541	1587.0
2.542	1588.0
2.543	1589.0
2.544	1590.0
2.545	1591.0
2.546	1592.0
2.547	1593.0
2.548	1594.0
2.549	1595.0
2.550	1596.0
2.551	1597.0
2.552	1598.0
2.553	1599.0
2.554	1600.0
2.555	1601.0
2.556	1602.0
2.557	1603.0
2.558	1604.0
2.559	1605.0
2.560	1606.0
2.561	1607.0
2.562	1608.0
2.563	1609.0
2.564	1610.0
2.565	1611.0
2.566	1612.0
2.567	1613.0
2.568	1614.0
2.569	1615.0
2.570	1616.0
2.571	1617.0
2.572	1618.0
2.573	1619.0
2.574	1620.0
2.575	1621.0
2.576	1622.0
2.577	1623.0
2.578	1624.0
2.579	1625.0
2.580	1626.0
2.581	1627.0
2.582	1628.0
2.583	1629.0
2.584	1630.0
2.585	1631.0
2.586	1632.0
2.587	1633.0
2.588	1634.0
2.589	1635.0
2.590	1636.0
2.591	1637.0
2.592	1638.0
2.593	1639.0
2.594	1640.0
2.595	1641.0
2.596	1642.0
2.597	1643.0
2.598	1644.0
2.599	1645.0
2.600	1646.0
2.601	1647.0
2.602	1648.0
2.603	1649.0
2.604	1650.0
2.605	1651.0
2.606	1652.0
2.607	1653.0
2.608	1654.0
2.609	1655.0
2.610	1656.0
2.611	1657.0
2.612	1658.0
2.613	1659.0
2.614	1660.0
2.615	1661.0
2.616	1662.0
2.617	1663.0
2.618	1664.0
2.619	1665.0
2.620	1666.0
2.621	1667.0
2.622	1668.0
2.623	1669.0
2.624	1670.0
2.625	1671.0
2.626	1672.0
2.627	1673.0
2.628	1674.0
2.629	1675.0
2.630	1676.0
2.631	1677.0
2.632	1678.0
2.633	1679.0
2.634	1680.0
2.635	1681.0
2.636	1682.0
2.637	1683.0
2.638	1684.0
2.639	1685.0
2.640	1686.0
2.641	1687.0
2.642	1688.0
2.643	1689.0
2.644	1690.0
2.645	1691.0
2.646	1692.0
2.647	1693.0
2.648	1694.0
2.649	1695.0
2.650	1696.0
2.651	1697.0
2.652	1698.0
2.653	1699.0
2.654	1700.0
2.655	1701.0
2.656	1702.0
2.657	1703.0
2.658	1704.0
2.659	1705.0
2.660	1706.0
2.661	1707.0
2.662	1708.0
2.663	1709.0
2.664	1710.0
2.665	1711.0
2.666	1712.0
2.667	1713.0
2.668	1714.0
2.669	1715.0
2.670	1716.0
2.671	1717.0
2.672	1718.0
2.673	1719.0
2.674	1720.0
2.675	1721.0
2.676	1722.0
2.677	1723.0
2.678	1724.0
2.679	1725.0
2.680	1726.0
2.681	1727.0
2.682	1728.0
2.683	1729.0
2.684	1730.0
2.685	1731.0
2.686	1732.0
2.687	1733.0
2.688	1734.0
2.689	1735.0
2.690	1736.0
2.691	1737.0
2.692	1738.0
2.693	1739.0
2.694	1740.0
2.695	1741.0
2.696	1742.0
2.697	1743.0
2.698	1744.0
2.699	1745.0
2.700	1746.0
2.701	1747.0
2.702	1748.0
2.703	1749.0
2.704	1750.0
2.705	1751.0
2.706	1752.0
2.707	1753.0
2.708	1754.0
2.709	1755.0
2.710	1756.0
2.711	1757.0
2.712	1758.0
2.713	1759.0
2.714	1760.0
2.715	1761.0
2.716	1762.0
2.717	1763.0
2.718	1764.0
2.719	1765.0
2.720	1766.0
2.721	1767.0
2.722	1768.0
2.723	1769.0
2.724	1770.0
2.725	1771.0
2.726	1772.0
2.727	1773.0
2.728	1774.0
2.729	1775.0
2.730	1776.0
2.731	1777.0
2.732	1778.0
2.733	1779.0
2.734	1780.0
2.735	1781.0
2.736	1782.0
2.737	1783.0
2.738	1784.0
2.739	1785.0
2.740	1786.0
2.741	1787.0
2.742	1788.0
2.743	1789.0
2.744	1790.0
2.745	1791.0
2.746	1792.0
2.747	1793.0
2.748	1794.0
2.749	1795.0
2.750	1796.0
2.751	1797.0
2.752	1798.0
2.753	1799.0
2.754	1800.0
2.755	1801.0
2.756	1802.0
2.757	1803.0
2.758	1804.0
2.759	1805.0
2.760	1806.0
2.761	1807.0
2.762	1808.0
2.763	1809.0
2.764	1810.0
2.765	1811.0
2.766	1812.0
2.767	1813.0
2.768	1814.0
2.769	1815.0
2.770	1816.0
2.771	1817.0
2.772	1818.0
2.773	1819.0
2.774	1820.0
2.775	1821.0
2.776	1822.0
2.777	1823.0
2.778	1824.0
2.779	1825.0
2.780	1826.0
2.781	1827.0
2.782	1828.0
2.783	1829.0
2.784	1830.0
2.785	1831.0
2.786	1832.0
2.787	1833.0
2.788	1834.0
2.789	1835.0
2.790	1836.0
2.791	1837.0
2.792	1838.0
2.793	1839.0
2.794	1840.0
2.795	1841.0
2.796	1842.0
2.797	1843.0
2.798	1844.0
2.799	1845.0
2.800	1846.0
2.801	1847.0
2.802	1848.0
2.803	1849.0
2.804	1850.0
2.805	1851.0
2.806	1852.0
2.807	1853.0
2.808	1854.0
2.809	1855.0
2.810	1856.0
2.811	1857.0
2.812	1858.0
2.813	1859.0
2.814	1860.0
2.815	1861.0
2.816	1862.0
2.817	1863.0
2.818	1864.0
2.819	1865.0
2.820	1866.0
2.821	1867.0
2.822	1868.0
2.823	1869.0
2.824	1870.0
2.825	1871.0
2.826	1872.0
2.827	1873.0
2.828	1874.0
2.829	1875.0
2.830	1876.0
2.831	1877.0
2.832	1878.0
2.833	1879.0
2.834	1880.0
2.835	1881.0
2.836	1882.0
2.837	1883.0
2.838	1884.0
2.839	1885.0
2.840	1886.0
2.841	1887.0
2.842	1888.0
2.843	1889.0
2.844	1890.0
2.845	1891.0
2.846	1892.0
2.847	1893.0
2.848	1894.0
2.849	1895.0
2.850	1896.0
2.851	1897.0
2.852	1898.0
2.853	1899.0
2.854	1900.0
2.855	1901.0
2.856	1902.0
2.857	1903.0
2.858	1904.0
2.859	1905.0
2.860	1906.0
2.861	1907.0
2.862	1908.0
2.863	1909.0
2.864	1910.0
2.865	1911.0
2.866	1912.0
2.867	1913.0
2.868	1914.0
2.869	1915.0
2.870	1916.0
2.871	1917.0
2.872	1918.0
2.873	1919.0
2.874	1920.0
2.875	1921.0
2.876	1922.0
2.877	1923.0
2.878	1924.0
2.879	1925.0
2.880	1926.0
2.881	1927.0
2.882	1928.0
2.883	1929.0
2.884	1930.0
2.885	1931.0
2.886	1932.0
2.887	1933.0
2.888	1934.0
2.889	1935.0
2.890	1936.0
2.891	1937.0
2.892	1938.0
2.893	1939.0
2.894	1940.0
2.895	1941.0
2.896	1942.0
2.897	1943.0
2.898	1944.0
2.899	1945.0
2.900	1946.0
2.901	1947.0
2.902	1948.0
2.903	1949.0
2.904	1950.0
2.905	1951.0
2.906	1952.0
2.907	1953.0
2.908	1954.0
2.909	1955.0
2.910	1956.0
2.911	1957.0
2.912	1958.0
2.913	1959.0
2.914	1960.0
2.915	1961.0
2.916	1962.0
2.917	1963.0
2.918	1964.0
2.919	1965.0
2.920	1966.0
2.921	1967.0
2.922	1968.0
2.923	1969.0
2.924	1970.0
2.925	1971.0
2.926	1972.0
2.927	1973.0
2.928	1974.0
2.929	1975.0
2.930	1976.0
2.931	1977.0
2.932	1978.0
2.933	1979.0
2.934	1980.0
2.935	1981.0
2.936	1982.0
2.937	1983.0
2.938	1984.0
2.939	1985.0
2.940	1986.0
2.941	1987.0
2.942	1988.0
2.943	1989.0
2.944	1990.0
2.945	1991.0
2.946	1992.0
2.947	1993.0
2.948	1994.0
2.949	1995.0
2.950	1996.0
2.951	1997.0
2.952	1998.0
2.953	1999.0
2.954	2000.0
2.955	2001.0
2.956	2002.0
2.957	2003.0
2.958	2004.0
2.959	2005.0
2.960	2006.0
2.961	2007.0
2.962	2008.0
2.963	2009.0
2.964	2010.0
2.965	2011.0
2.966	2012.0
2.967	2013.0
2.968	2014.0
2.969	2015.0
2.970	2016.0
2.971	2017.0
2.972	2018.0
2.973	2019.0
2.974	2020.0
2.975	2021.0
2.976	2022.0
2.977	2023.0
2.978	2024.0
2.979	2025.0
2.980	2026.0
2.981	2027.0
2.982	2028.0
2.983	2029.0
2.984	2030.0
2.985	2031.0
2.986	2032.0
2.987	2033.0
2.988	2034.0
2.989	2035.0
2.990	2036.0
2.991	2037.0
2.992	2038.0
2.993	2039.0
2.994	2040.0
2.995	2041.0
2.996	2042.0
2.997	2043.0
2.998	2044.0
2.999	2045.0
3.000	2046.0
3.001	2047.0
3.002	2048.0
3.003	2049.0
3.004	2050.0
3.005	2051.0
3.006	2052.0
3.007	2053.0
3.008	2054.0
3.009	2055.0
3.010	2056.0
3.011	2057.0
3.012	2058.0
3.013	2059.0
3.014	2060.0
3.015	2061.0
3.016	2062.0
3.017	2063.0
3.018	2064.0
3.019	2065.0
3.020	2066.0
3.021	2067.0
3.022	2068.0
3.023	2069.0
3.024	2070.0
3.025	2071.0
3.026	2072.0
3.027	2073.0
3.028	2074.0
3.029	2075.0
3.030	2076.0
3.031	2077.0
3.032	2078.0
3.033	2079.0
3.034	2080.0
3.035	2081.0
3.036	2082.0
3.037	2083.0
3.038	2084.0
3.039	2085.0
3.040	2086.0
3.041	2087.0
3.042	2088.0
3.043	2089.0
3.044	2090.0
3.045	2091.0
3.046	2092.0
3.047	2093.0
3.048	2094.0
3.049	2095.0
3.050	2096.0
3.051	2097.0
3.052	2098.0
3.053	2099.0
3.054	2100.0
3.055	2101.0
3.056	2102.0
3.057	2103.0
3.058	2104.0
3.059	2105.0
3.060	2106.0
3.061	2107.0
3.062	2108.0
3.063	2109.0
3.064	2110.0
3.065	2111.0
3.066	2112.0
3.067	2113.0
3.068	2114.0
3.069	2115.0
3.070	2116.0
3.071	2117.0
3.072	2118.0
3.073	2119.0
3.074	2120.0
3.075	2121.0
3.076	2122.0
3.077	2123.0
3.078	2124.0
3.079	2125.0
3.080	2126.0
3.081	2127.0
3.082	2128.0
3.083	2129.0
3.084	2130.0
3.085	2131.0
3.086	2132.0
3.087	2133.0
3.088	2134.0
3.089	2135.0
3.090	2136.0
3.091	2137.0
3.092	2138.0
3.093	2139.0
3.094	2140.0
3.095	2141.0
3.096	2142.0
3.097	2143.0
3.098	2144.0
3.099	2145.0
3.100	2146.0
3.101	2147.0
3.102	2148.0
3.103	2149.0
3.104	2150.0
3.105	2151.0
3.106	2152.0
3.107	2153.0
3.108	2154.0
3.109	2155.0
3.110	2156.0
3.111	2157.0
3.112	2158.0
3.113	2159.0
3.114	2160.0
3.115	2161.0
3.116	2162.0
3.117	2163.0
3.118	2164.0
3.119	2165.0
3.120	2166.0
3.121	2167.0
3.122	2168.0
3.123	2169.0
3.124	2170.0
3.125	2171.0
3.126	2172.0
3.127	2173.0
3.128	2174.0
3.129	2175.0
3.130	2176.0
3.131	2177.0
3.132	2178.0
3.133	2179.0
3.134	2180.0
3.135	2181.0
3.136	2182.0
3.137	2183.0
3.138	2184.0
3.139	2185.0
3.140	2186.0
3.141	2187.0
3.142	2188.0
3.143	2189.0
3.144	2190.0
3.145	2191.0
3.146	2192.0
3.147	2193.0
3.148	2194.0
3.149	2195.0
3.150	2196.0
3.151	2197.0
3.152	2198.0
3.153	2199.0
3.154	2200.0
3.155	2201.0
3.156	2202.0
3.157	2203.0
3.158	2204.0
3.159	2205.0
3.160	2206.0
3.161	2207.0
3.162	2208.0
3.163	2209.0
3.164	2210.0
3.165	2211.0
3.166	2212.0
3.167	2213.0
3.168	2214.0
3.169	2215.0
3.170	2216.0
3.171	2217.0
3.172	2218.0
3.173	2219.0
3.174	2220.0
3.175	2221.0
3.176	2222.0
3.177	2223.0
3.178	2224.0
3.179	2225.0
3.180	2226.0
3.181	2227.0
3.182	2228.0
3.183	2229.0
3.184	2230.0
3.185	2231.0
3.186	2232.0
3.187	2233.0
3.188	2234.0
3.189	2235.0
3.190	2236.0
3.191	2237.0
3.192	2238.0
3.193	2239.0
3.194	2240.0
3.195	2241.0
3.196	2242.0
3.197	2243.0
3.198	2244.0
3.199	2245.0
3.200	2246.0
3.201	2247.0
3.202	2248.0
3.203	2249.0
3.204	2250.0
3.205	2251.0
3.206	2252.0
3.207	2253.0
3.208	2254.0
3.209	2255.0
3.210	2256.0
3.211	2257.0
3.212	2258.0
3.213	2259.0
3.214	2260.0
3.215	2261.0
3.216	2262.0
3.217	2263.0
3.218	2264.0
3.219	2265.0
3.220	2266.0
3.221	2267.0
3.222	2268.0
3.223	2269.0
3.224	2270.0
3.225	2271.0
3.226	2272.0
3.227	2273.0
3.228	2274.0
3.229	2275.0
3.230	2276.0
3.231	2277.0
3.232	2278.0
3.233	2279.0
3.234	2280.0
3.235	2281.0
3.236	2282.0
3.237	2283.0
3.238	2284.0
3.239	2285.0
3.240	2286.0
3.241	2287.0
3.242	2288.0
3.243	2289.0
3.244	2290.0
3.245	2291.0
3.246	2292.0
3.247	2293.0
3.248	2294.0
3.249	2295.0
3.250	2296.0
3.251	2297.0
3.252	2298.0
3.253	2299.0
3.254	2300.0
3.255	2301.0
3.256	2302.0
3.257	2303.0
3.258	2304.0
3.259	2305.0
3.260	2306.0
3.261	2307.0
3.262	2308.0
3.263	2309.0
3.264	2310.0
3.265	2311.0
3.266	2312.0
3.267	2313.0
3.268	2314.0
3.269	2315.0
3.270	2316.0
3.271	2317.0
3.272	2318.0
3.273	2319.0
3.274	2320.0
3.275	2321.0
3.276	2322.0
3.277	2323.0
3.278	2324.0
3.279	2325.0
3.280	2326.0
3.281	2327.0
3.282	2328.0
3.283	2329.0
3.284	2330.0
3.285	2331.0
3.286	2332.0
3.287	2333.0
3.288	2334.0
3.289	2335.0
3.290	2336.0
3.291	2337.0
3.292	2338.0
3.293	2339.0
3.294	2340.0
3.295	2341.0
3.296	2342.0
3.297	2343.0
3.298	2344.0
3.299	2345.0
3.300	2346.0
3.301	2347.0
3.302	2348.0
3.303	2349.0
3.304	2350.0
3.305	2351.0
3.306	2352.0
3.307	2353.0
3.308	2354.0
3.309	2355.0
3.310	2356.0
3.311	2357.0
3.312	2358.0
3.313	2359.0
3.314	2360.0
3.315	2361.0
3.316	2362.0
3.317	2363.0
3.318	2364.0
3.319	2365.0
3.320	2366.0
3.321	2367.0
3.322	2368.0
3.323	2369.0
3.324	2370.0
3.325	2371.0
3.326	2372.0
3.327	2373.0
3.328	2374.0
3.329	2375.0
3.330	2376.0
3.331	2377.0
3.332	2378.0
3.333	2379.0
3.334	2380.0
3.335	2381.0
3.336	2382.0
3.337	2383.0
3.338	2384.0
3.339	2385.0
3.340	2386.0
3.341	2387.0
3.342	2388.0
3.343	2389.0
3.344	2390.0
3.345	2391.0
3.346	2392.0
3.347	2393.0
3.348	2394.0
3.349	2395.0
3.350	2396.0
3.351	2397.0
3.352	2398.0
3.353	2399.0
3.354	2400.0
3.355	2401.0
3.356	2402.0
3.357	2403.0
3.358	2404.0
3.359	2405.0
3.360	2406.0
3.361	2407.0
3.362	2408.0
3.363	2409.0
3.364	2410.0
3.365	2411.0
3.366	2412.0
3.367	2413.0
3.368	2414.0
3.369	2415.0
3.370	2416.0
3.371	2417.0
3.372	2418.0
3.373	2419.0
3.374	2420.0
3.375	2421.0
3.376	2422.0
3.377	2423.0
3.378	2424.0
3.379	2425.0
3.380	2426.0
3.381	2427.0
3.382	2428.0
3.383	2429.0
3.384	2430.0
3.385	2431.0
3.386	2432.0
3.387	2433.0
3.388	2434.0
3.389	2435.0
3.390	2436.0
3.391	2437.0
3.392	2438.0
3.393	2439.0
3.394	2440.0
3.395	2441.0
3.396	2442.0
3.397	2443.0
3.398	2444.0
3.399	2445.0
3.400	2446.0
3.401	2447.0
3.402	2448.0
3.403	2449.0
3.404	2450.0
3.405	2451.0
3.406	2452.0
3.407	2453.0
3.408	2454.0
3.409	2455.0
3.410	2456.0
3.411	2457.0
3.412	2458.0
3.413	2459.0
3.414	2460.0
3.415	2461.0
3.416	2462.0
3.417	2463.0
3.418	2464.0
3.419	2465.0
3.420	2466.0
3.421	2467.0
3.422	2468.0
3.423	2469.0
3.424	2470.0
3.425	2471.0
3.426	2472.0
3.427	2473.0
3.428	2474.0
3.429	2475.0
3.430	2476.0
3.431	2477.0
3.432	2478.0
3.433	2479.0
3.434	2480.0
3.435	2481.0
3.436	2482.0
3.437	2483.0
3.438	2484.0
3.439	2485.0
3.440	2486.0
3.441	2487.0
3.442	2488.0
3.443	2489.0
3.444	2490.0
3.445	2491.0
3.446	2492.0
3.447	2493.0
3.448	2494.0
3.449	2495.0
3.450	2496.0
3.451	2497.0
3.452	2498.0
3.453	2499.0
3.454	2500.0
3.455	2501.0
3.456	2502.0
3.457	2503.0
3.458	2504.0
3.459	2505.0
3.460	2506.0
3.461	2507.0
3.462	2508.0
3.463	2509.0
3.464	2510.0
3.465	2511.0
3.466	2512.0
3.467	2513.0
3.468	2514.0
3.469	2515.0
3.470	2516.0
3.471	2517.0
3.472	2518.0
3.473	2519.0
3.474	2520.0
3.475	2521.0
3.476	2522.0
3.477	2523.0
3.478	2524.0
3.479	2525.0
3.480	2526.0
3.481	2527.0
3.482	2528.0
3.483	2529.0
3.484	2530.0
3.485	2531.0
3.486	2532.0
3.487	2533.0
3.488	2534.0
3.489	2535.0
3.490	2536.0
3.491	2537.0
3.492	2538.0
3.493	2539.0
3.494	2540.0
3.495	2541.0
3.496	2542.0
3.497	2543.0
3.498	2544.0
3.499	2545.0
3.500	2546.0
3.501	2547.0
3.502	2548.0
3.503	2549.0
3.504	2550.0
3.505	2551.0
3.506	2552.0
3.507	2553.0
3.508	2554.0
3.509	2555.0
3.510	2556.0
3.511	2557.0
3.512	2558.0
3.513	2559.0
3.514	2560.0
3.515	2561.0
3.516	2562.0
3.517	2563.0
3.518	2564.0
3.519	2565.0
3.520	2566.0
3.521	2567.0
3.522	2568.0
3.523	2569.0
3.524	2570.0
3.525	2571.0
3.526	2572.0
3.527	2573.0
3.528	2574.0
3.529	2575.0
3.530	2576.0
3.531	2577.0
3.532	2578.0
3.533	2579.0
3.534	2580.0
3.535	2581.0
3.536	2582.0
3.537	2583.0
3.538	2584.0
3.539	2585.0
3.540	2586.0
3.541	2587.0
3.542	2588.0
3.543	2589.0
3.544	2590.0
3.545	2591.0
3.546	2592.0
3.547	2593.0
3.548	2594.0
3.549	2595.0
3.550	2596.0
3.551	2597.0
3.552	2598.0
3.553	2599.0
3.554	2600.0
3.555	2601.0
3.556	2602.0
3.557	2603.0
3.558	2604.0
3.559	2605.0
3.560	2606.0
3.561	2607.0
3.562	2608.0
3.563	2609.0
3.564	2610.0
3.565	2611.0
3.566	2612.0
3.567	2613.0
3.568	2614.0
3.569	2615.0
3.570	2616.0
3.571	2617.0
3.572	2618.0
3.573	2619.0
3.574	2620.0
3.575	2621.0
3.576	2622.0
3.577	2623.0
3.578	2624.0
3.579	2625.0
3.580	2626.0
3.581	2627.0
3.582	2628.0
3.583	2629.0
3.584	2630.0
3.585	2631.0
3.586	2632.0
3.587	2633.0
3.588	2634.0
3.589	2635.0
3.590	2636.0
3.591	2637.0
3.592	2638.0
3.593	2639.0
3.594	2640.0
3.595	2641.0
3.596	2642.0
3.597	2643.0
3.598	2644.0
3.599	2645.0
3.600	2646.0
3.601	2647.0
3.602	2648.0
3.603	2649.0
3.604	2650.0
3.605	2651.0
3.606	2652.0
3.607	2653.0
3.608	2654.0
3.609	2655.0
3.610	2656.0
3.611	2657.0
3.612	2658.0
3.613	2659.0
3.614	2660.0
3.615	2661.0
3.616	2662.0
3.617	2663.0
3.618	2664.0
3.619	2665.0
3.620	2666.0
3.621	2667.0
3.622	2668.0
3.623	2669.0
3.624	2670.0
3.625	2671.0
3.626	2672.0
3.627	2673.0
3.628	2674.0
3.629	2675.0
3.630	2676.0
3.631	2677.0
3.632	2678.0
3.633	2679.0
3.634	2680.0
3.635	2681.0
3.636	2682.0
3.637	2683.0
3.638	2684.0
3.639	2685.0
3.640	2686.0
3.641	2687.0
3.642	2688.0
3.643	2689.0
3.644	2690.0
3.645	2691.0
3.646	2692.0
3.647	2693.0
3.648	2694.0
3.649	2695.0
3.650	2696.0
3.651	2697.0
3.652	2698.0
3.653	2699.0
3.654	2700.0
3.655	2701.0
3.656	2702.0
3.657	2703.0
3.658	2704.0
3.659	2705.0
3.660	2706.0
3.661	2707.0
3.662	2708.0
3.663	2709.0
3.664	2710.0
3.665	2711.0
3.666	2712.0
3.667	2713.0
3.668	2714.0
3.669	2715.0
3.670	2716.0
3.671	2717.0
3.672	2718.0
3.673	2719.0
3.674	2720.0
3.675	2721.0
3.676	2722.0
3.677	2723.0
3.678	2724.0
3.679	2725.0
3.680	2726.0
3.681	2727.0
3.682	2728.0
3.683	2729.0
3.684	2730.0
3.685	2731.0
3.686	2732.0
3.687	2733.0
3.688	2734.0
3.689	2735.0
3.690	2736.0
3.691	2737.0
3.692	2738.0
3.693	2739.0
3.694	2740.0
3.695	2741.0
3.696	2742.0
3.697	2743.0
3.698	2744.0
3.699	2745.0
3.700	2746.0
3.701	2747.0
3.702	2748.0
3.703	2749.0
3.704	2750.0
3.705	2751.0
3.706	2752.0
3.707	2753.0
3.708	2754.0
3.709	2755.0
3.710	2756.0
3.711	2757.0
3.712	2758.0
3.713	2759.0
3.714	2760.0
3.715	2761.0
3.716	2762.0
3.717	2763.0
3.718	2764.0
3.719	2765.0
3.720	2766.0
3.721	2767.0
3.722	2768.0
3.723	2769.0
3.724	2770.0
3.725	2771.0
3.726	2772.0
3.727	2773.0
3.728	2774.0
3.729	2775.0
3.730	2776.0
3.731	2777.0
3.732	2778.0
3.733	2779.0
3.734	2780.0
3.735	2781.0
3.736	2782.0
3.737	2783.0
3.738	2784.0
3.739	2785.0
3.740	2786.0
3.741	2787.0
3.742	2788.0
3.743	2789.0
3.744	2790.0
3.745	2791.0
3.746	2792.0
3.747	2793.0
3.748	2794.0
3.749	2795.0
3.750	2796.0
3.751	2797.0
3.752	2798.0
3.753	2799.0
3.754	2800.0
3.755	2801.0
3.756	2802.0
3.757	2803.0
3.758	2804.0
3.759	2805.0
3.760	2806.0
3.761	2807.0
3.762	2808.0
3.763	2809.0
3.764	2810.0
3.765	2811.0
3.766	2812.0
3.767	2813.0
3.768	2814.0
3.769	2815.0
3.770	2816.0
3.771	2817.0
3.772	2818.0
3.773	2819.0
3.774	2820.0
3.775	2821.0
3.776	2822.0
3.777	2823.0
3.778	2824.0
3.779	2825.0
3.780	2826.0
3.781	2827.0
3.782	2828.0
3.783	2829.0
3.784	2830.0
3.785	2831.0
3.786	2832.0
3.787	2833.0
3.788	2834.0
3.789	2835.0
3.790	2836.0
3.791	2837.0
3.792	2838.0
3.793	2839.0
3.794	2840.0
3.795	2841.0
3.796	2842.0
3.797	2843.0
3.798	2844.0
3.799	2845.0
3.800	2846.0
3.801	2847.0
3.802	2848.0
3.803	2849.0
3.804	2850.0
3.805	2851.0
3.806	2852.0
3.807	2853.0
3.808	2854.0
3.809	2855.0
3.810	2856.0
3.811	2857.0
3.812	2858.0
3.813	2859.0
3.814	2860.0
3.815	2861.0
3.816	2862.0
3.817	2863.0
3.818	2864.0
3.819	2865.0
3.820	2866.0
3.821	2867.0
3.822	2868.0
3.823	2869.0
3.824	2870.0
3.825	2871.0
3.826	2872.0
3.827	2873.0
3.828	2874.0
3.829	2875.0
3.830	2876.0
3.831	2877.0
3.832	2878.0
3.833	2879.0
3.834	2880.0
3.835	2881.0
3.836	2882.0
3.837	2883.0
3.838	2884.0
3.839	2885.0
3.840	2886.0
3.841	2887.0
3.842	2888.0
3.843	2889.0
3.844	2890.0
3.845	2891.0
3.846	2892.0
3.847	2893.0
3.848	2894.0
3.849	2895.0
3.850	2896.0
3.851	2897.0
3.852	2898.0
3.853	2899.0
3.854	2900.0
3.855	2901.0
3.856	2902.0
3.857	2903.0
3.858	2904.0
3.859	2905.0
3.860	2906.0
3.861	2907.0
3.862	2908.0
3.863	2909.0
3.864	2910.0
3.865	2911.0
3.866	2912.0
3.867	2913.0
3.868	2914.0
3.869	2915.0
3.870	2916.0
3.871	2917.0
3.872	2918.0
3.873	2919.0
3.874	2920.0
3.875	2921.0
3.876	2922.0
3.877	2923.0
3.878	2924.0
3.879	2925.0
3.880	2926.0
3.881	2927.0
3.882	2928.0
3.883	2929.0
3.884	2930.0
3.885	2931.0
3.886	2932.0
3.887	2933.0
3.888	2934.0
3.889	2935.0
3.890	2936.0
3.891	2937.0
3.892	2938.0
3.893	2939.0
3.894	2940.0
3.895	2941.0
3.896	2942.0
3.897	2943.0
3.898	2944.0
3.899	2945.0
3.900	2946.0
3.901	2947.0
3.902	2948.0
3.903	2949.0
3.904	2950.0
3.905	2951.0
3.906	2952.0
3.907	2953.0
3.908	2954.0
3.909	2955.0
3.910	2956.0
3.911	2957.0
3.912	2958.0
3.913	2959.0
3.914	2960.0
3.915	2961.0
3.916	2962.0
3.917	2963.0
3.918	2964.0
3.919	2965.0
3.920	2966.0
3.921	2967.0
3.922	2968.0
3.923	2969.0
3.924	2970.0
3.925	2971.0
3.926	2972.0
3.927	2973.0
3.928	2974.0
3.929	2975.0
3.930	2976.0
3.931	2977.0
3.932	2978.0
3.933	2979.0
3.934	2980.0
3.935	2981.0
3.936	2982.0
3.937	2983.0
3.938	2984.0
3.939	2985.0
3.940	2986.0
3.941	2987.0
3.942	2988.0
3.943	2989.0
3.944	2990.0
3.945	2991.0
3.946	2992.0
3.947	2993.0
3.948	2994.0
3.949	2995.0
3.950	2996.0
3.951	2997.0
3.952	2998.0
3.953	2999.0
3.954	3000.0
3.955	3001.0
3.956	3002.0
3.957	3003.0
3.958	3004.0
3.959	3005.0
3.960	3006.0
3.961	3007.0
3.962	3008.0
3.963	3009.0
3.964	3010.0
3.965	3011.0
3.966	3012.0
3.967	3013.0
3.968	3014.0
3.969	3015.0
3.970	3016.0
3.971	3017.0
3.972	3018.0
3.973	3019.0
3.974	3020.0
3.975	3021.0
3.976	3022.0
3.977	3023.0
3.978	3024.0
3.979	3025.0
3.980	3026.0
3.981	3027.0
3.982	3028.0
3.983	3029.0
3.984	3030.0
3.985	3031.0
3.986	3032.0
3.987	3033.0
3.988	3034.0
3.989	3035.0
3.990	3036.0
3.991	3037.0
3.992	3038.0
3.993	3039.0
3.994	3040.0
3.995	3041.0
3.996	3042.0
3.997	3043.0
3.998	3044.0
3.999	3045.0
4.000	3046.0
4.001	3047.0
4.002	3048.0
4.003	3049.0
4.004	3050.0
4.005	3051.0
4.006	3052.0
4.007	3053.0
4.008	3054.0
4.009	3055.0
4.010	3056.0
4.011	3057.0
4.012	3058.0
4.013	3059.0
4.014	3060.0
4.015	3061.0
4.016	3062.0
4.017	3063.0
4.018	3064.0
4.019	3065.0
4.020	3066.0
4.021	3067.0
4.022	3068.0
4.023	3069.0
4.024	3070.0
4.025	3071.0
4.026	3072.0
4.027	3073.0
4.028	3074.0
4.029	3075.0
4.030	3076.0
4.031	3077.0
4.032	3078.0
4.033	3079.0
4.034	3080.0
4.035	3081.0
4.036	3082.0
4.037	3083.0
4.038	3084.0
4.039	3085.0
4.040	3086.0
4.041	3087.0
4.042	3088.0
4.043	3089.0
4.044	3090.0
4.045	3091.0
4.046	3092.0
4.047	3093.0
4.048	3094.0
4.049	3095.0
4.050	3096.0
4.051	3097.0
4.052	3098.0
4.053	3099.0
4.054	3100.0
4.055	3101.0
4.056	3102.0
4.057	3103.0
4.058	3104.0
4.059	3105.0
4.060	3106.0
4.061	3107.0
4.062	3108.0
4.063	3109.0
4.064	3110.0
4.065	3111.0
4.066	3112.0
4.067	3113.0
4.068	3114.0
4.069	3115.0
4.070	3116.0
4.071	3117.0
4.072	3118.0
4.073	3119.0
4.074	3120.0
4.075	3121.0
4.076	3122.0
4.077	3123.0
4.078	3124.0
4.079	3125.0
4.080	3126.0
4.081	3127.0
4.082	3128.0
4.083	3129.0
4.084	3130.0
4.085	3131.0
4.086	3132.0
4.087	3133.0
4.088	3134.0
4.089	3135.0
4.090	3136.0
4.091	3137.0
4.092	3138.0
4.093	3139.0
4.094	3140.0
4.095	3141.0
4.096	3142.0
4.097	3143.0
4.098	3144.0
4.099	3145.0
4.100	3146.0
4.101	3147.0
4.102	3148.0
4.103	3149.0
4.104	3150.0
4.105	3151.0
4.106	3152.0
4.107	3153.0
4.108	3154.0
4.109	3155.0
4.110	3156.0
4.111	3157.0
4.112	3158.0
4.113	3159.0
4.114	3160.0
4.115	3161.0
4.116	3162.0
4.117	3163.0
4.118	3164.0
4.119	3165.0
4.120	3166.0
4.121	3167.0
4.122	3168.0
4.123	3169.0
4.124	3170.0
4.125	3171.0
4.126	3172.0
4.127	3173.0
4.128	3174.0
4.129	3175.0
4.130	3176.0
4.131	3177.0
4.132	3178.0
4.133	3179.0
4.134	3180.0
4.135	3181.0
4.136	3182.0
4.137	3183.0
4.138	3184.0
4.139	3185.0
4.140	3186.0
4.141	3187.0
4.142	3188.0
4.143	3189.0
4.144	3190.0
4.145	3191.0
4.146	3192.0
4.147	3193.0
4.148	3194.0
4.149	3195.0
4.150	3196.0
4.151	3197.0
4.152	3198.0
4.153	3199.0
4.154	3200.0
4.155	3201.0
4.156	3202.0
4.157	3203.0
4.158	3204.0
4.159	3205.0
4.160	3206.0
4.161	3207.0
4.162	3208.0
4.163	3209.0
4.164	3210.0
4.165	3211.0
4.166	3212.0
4.167	3213.0
4.168	3214.0
4.169	3215.0
4.170	3216.0
4.171	3217.0
4.172	3218.0
4.173	3219.0
4.174	3220.0
4.175	3221.0
4.176	3222.0
4.177	3223.0
4.178	3224.0
4.179	3225.0
4.180	3226.0
4.181	3227.0
4.182	3228.0
4.183	3229.0
4.184	3230.0
4.185	3231.0
4.186	3232.0
4.187	3233.0
4.188	3234.0
4.189	3235.0
4.190	3236.0
4.191	3237.0
4.192	3238.0
4.193	3239.0
4.194	3240.0
4.195	3241.0
4.196	3242.0
4.197	3243.0
4.198	3244.0
4.199	3245.0
4.200	3246.0
4.201	3247.0
4.202	3248.0
4.203	3249.0
4.204	3250.0
4.205	3251.0
4.206	3252.0
4.207	3253.0
4.208	3254.0
4.209	3255.0
4.210	3256.0
4.211	3257.0
4.212	3258.0
4.213	3259.0
4.214	3260.0
4.215	3261.0
4.216	3262.0
4.217	3263.0
4.218	3264.0
4.219	3265.0
4.220	3266.0
4.221	3267.0
4.222	3268.0
4.223	3269.0
4.224	3270.0
4.225	3271.0
4.226	3272.0
4.227	3273.0
4.228	3274.0
4.229	3275.0
4.230	3276.0
4.231	3277.0
4.232	3278.0
4.233	3279.0
4.234	3280.0
4.235	3281.0
4.236	3282.0
4.237	3283.0
4.238	3284.0
4.239	3285.0
4.240	3286.0
4.241	3287.0
4.242	3288.0
4.243	3289.0
4.244	3290.0
4.245	3291.0
4.246	3292.0
4.247	3293.0
4.248	3294.0
4.249	3295.0
4.250	3296.0
4.251	3297.0
4.252	3298.0
4.253	3299.0
4.254	3300.0
4.255	3301.0
4.256	3302.0
4.257	3303.0
4.258	3304.0
4.259	3305.0
4.260	3306.0
4.261	3307.0
4.262	3308.0
4.263	3309.0
4.264	3310.0
4.265	3311.0
4.266	3312.0
4.267	3313.0
4.268	3314.0
4.269	3315.0
4.270	3316.0
4.271	3317.0
4.272	3318.0
4.273	3319.0
4.274	3320.0
4.275	3321.0
4.276	3322.0
4.277	3323.0
4.278	3324.0
4.279	3325.0
4.280	3326.0
4.281	3327.0
4.282	3328.0
4.283	3329.0
4.284	3330.0
4.285	3331.0
4.286	3332.0
4.287	3333.0
4.288	3334.0
4.289	3335.0
4.290	3336.0
4.291	3337.0
4.292	3338.0
4.293	3339.0
4.294	3340.0
4.295	3341.0
4.296	3342.0
4.297	3343.0
4.298	3344.0
4.299	3345.0
4.300	3346.0
4.301	3347.0
4.302	3348.0
4.303	3349.0
4.304	3350.0
4.305	3351.0
4.306	3352.0
4.307	3353.0
4.308	3354.0
4.309	3355.0
4.310	3356.0
4.311	3357.0
4.312	3358.0
4.313	3359.0
4.314	3360.0
4.315	3361.0
4.316	3362.0
4.317	3363.0
4.318	3364.0
4.319	3365.0
4.320	3366.0
4.321	3367.0
4.322	3368.0
4.323	3369.0
4.324	3370.0
4.325	3371.0
4.326	3372.0
4.327	3373.0
4.328	3374.0
4.329	3375.0
4.330	3376.0
4.331	3377.0
4.332	3378.0
4.333	3379.0
4.334	3380.0
4.335	3381.0
4.336	3382.0
4.337	3383.0
4.338	3384.0
4.339	3385.0
4.340	3386.0
4.341	3387.0
4.342	3388.0
4.343	3389.0
4.344	3390.0
4.345	3391.0
4.346	3392.0
4.347	3393.0
4.348	3394.0
4.349	3395.0
4.350	3396.0
4.351	3397.0
4.352	3398.0
4.353	3399.0
4.354	3400.0
4.355	3401.0
4.356	3402.0
4.357	3403.0
4.358	3404.0
4.359	3405.0
4.360	3406.0
4.361	3407.0
4.362	3408.0
4.363	3409.0
4.364	3410.0
4.365	3411.0
4.366	3412.0
4.367	3413.0
4.368	3414.0
4.369	3415.0
4.370	3416.0
4.371	3417.0
4.372	3418.0
4.373	3419.0
4.374	3420.0
4.375	3421.0
4.376	3422.0
4.377	3423.0
4.378	3424.0
4.379	3425.0
4.380	3426.0
4.381	3427.0
4.382	3428.0
4.383	3429.0
4.384	3430.0
4.385	3431.0
4.386	3432.0
4.387	3433.0
4.388	3434.0
4.389	3435.0
4.390	3436.0
4.391	3437.0
4.392	3438.0
4.393	3439.0
4.394	3440.0
4.395	3441.0
4.396	3442.0
4.397	3443.0
4.398	3444.0
4.399	3445.0
4.400	3446.0
4.401	3447.0
4.402	3448.0
4.403	3449.0
4.404	3450.0
4.405	3451.0
4.406	3452.0
4.407	3453.0
4.408	3454.0
4.409	3455.0
4.410	3456.0
4.411	3457.0
4.412	3458.0
4.413	3459.0
4.414	3460.0
4.415	3461.0
4.416	3462.0
4.417	3463.0
4.418	3464.0
4.419	3465.0
4.420	3466.0
4.421	3467.0
4.422	3468.0
4.423	3469.0
4.424	3470.0
4.425	3471.0
4.426	3472.0
4.427	3473.0
4.428	3474.0
4.429	3475.0
4.430	3476.0
4.431	3477.0
4.432	3478.0
4.433	3479.0
4.434	3480.0
4.435	3481.0
4.436	3482.0
4.437	3483.0
4.438	3484.0
4.439	3485.0
4.440	3486.0
4.441	3487.0
4.442	3488.0
4.443	3489.0
4.444	3490.0
4.445	3491.0
4.446	3492.0
4.447	3493.0
4.448	3494.0
4.449	3495.0
4.450	3496.0
4.451	3497.0
4.452	3498.0
4.453	3499.0
4.454	3500.0
4.455	3501.0
4.456	3502.0
4.457	3503.0
4.458	3504.0
4.459	3505.0
4.460	3506.0
4.461	3507.0
4.462	3508.0
4.463	3509.0
4.464	3510.0
4.465	3511.0
4.466	3512.0
4.467	3513.0
4.468	3514.0
4.469	3515.0
4.470	3516.0
4.471	3517.0
4.472	3518.0
4.473	3519.0
4.474	3520.0
4.475	3521.0
4.476	3522.0
4.477	3523.0
4.478	3524.0
4.479	3525.0
4.480	3526.0
4.481	3527.0
4.482	3528.0
4.483	3529.0
4.484	3530.0
4.485	3531.0
4.486	3532.0
4.487	3533.0
4.488	3534.0
4.489	3535.0
4.490	3536.0
4.491	3537.0
4.492	3538.0
4.493	3539.0
4.494	3540.0
4.495	3541.0
4.496	3542.0
4.497	3543.0
4.498	3544.0
4.499	3545.0
4.500	3546.0
4.501	3547.0
4.502	3548.0
4.503	3549.0
4.504	3550.0
4.505	3551.0
4.506	3552.0
4.507	3553.0
4.508	3554.0
4.509	3555.0
4.510	3556.0
4.511	3557.0
4.512	3558.0
4.513	3559.0
4.514	3560.0
4.515	3561.0
4.516	3562.0
4.517	3563.0
4.518	3564.0
4.519	3565.0
4.520	3566.0
4.521	3567.0
4.522	3568.0
4.523	3569.0
4.524	3570.0
4.525	3571.0
4.526	3572.0
4.527	3573.0
4.528	3574.0
4.529	3575.0
4.530	3576.0
4.531	3577.0
4.532	3578.0
4.533	3579.0
4.534	3580.0
4.535	3581.0
4.536	3582.0
4.537	3583.0
4.538	3584.0
4.539	3585.0
4.540	3586.0
4.541	3587.0
4.542	3588.0
4.543	3589.0
4.544	3590.0
4.545	3591.0
4.546	3592.0
4.547	3593.0
4.548	3594.0
4.549	3595.0
4.550	3596.0
4.551	3597.0
4.552	3598.0
4.553	3599.0
4.554	3600.0
4.555	3601.0
4.556	3602.0
4.557	3603.0
4.558	3604.0
4.559	3605.0
4.560	3606.0
4.561	3607.0
4.562	3608.0
4.563	3609.0
4.564	3610.0
4.565	3611.0
4.566	3612.0
4.567	3613.0
4.568	3614.0
4.569	3615.0
4.570	3616.0
4.571	3617.0
4.572	3618.0
4.573	3619.0
4.574	3620.0
4.575	3621.0
4.576	3622.0
4.577	3623.0
4.578	3624.0
4.579	3625.0
4.580	3626.0
4.581	3627.0
4.582	3628.0
4.583	3629.0
4.584	3630.0
4.585	3631.0
4.586	3632.0
4.587	3633.0
4.588	3634.0
4.589	3635.0
4.590	3636.0
4.591	3637.0
4.592	3638.0
4.593	3639.0
4.594	3640.0
4.595	3641.0
4.596	3642.0
4.597	3643.0
4.598	3644.0
4.599	3645.0
4.600	3646.0
4.601	3647.0
4.602	3648.0
4.603	3649.0
4.604	3650.0
4.605	3651.0
4.606	3652.0
4.607	3653.0
4.608	3654.0
4.609	3655.0
4.610	3656.0
4.611	3657.0
4.612	3658.0
4.613	3659.0
4.614	3660.0
4.615	3661.0
4.616	3662.0
4.617	3663.0
4.618	3664.0
4.619	3665.0
4.620	3666.0
4.621	3667.0
4.622	3668.0
4.623	3669.0
4.624	3670.0
4.625	3671.0
4.626	3672.0
4.627	3673.0
4.628	3674.0
4.629	3675.0
4.630	3676.0
4.631	3677.0
4.632	3678.0
4.633	3679.0
4.634	3680.0
4.635	3681.0
4.636	3682.0
4.637	3683.0
4.638	3684.0
4.639	3685.0
4.640	3686.0
4.641	3687.0
4.642	3688.0
4.643	3689.0
4.644	3690.0
4.645	3691.0
4.646	3692.0
4.647	3693.0
4.648	3694.0
4.649	3695.0
4.650	3696.0
4.651	3697.0
4.652	3698.0
4.653	3699.0
4.654	3700.0
4.655	3701.0
4.656	3702.0
4.657	3703.0
4.658	3704.0
4.659	3705.0
4.660	3706.0
4.661	3707.0
4.662	3708.0
4.663	3709.0
4.664	3710.0
4.665	3711.0
4.666	3712.0
4.667	3713.0
4.668	3714.0
4.669	3715.0
4.670	3716.0
4.671	3717.0
4.672	3718.0
4.673	3719.0
4.674	3720.0
4.675	3721.0
4.676	3722.0
4.677	3723.0
4.678	3724.0
4.679	3725.0
4.680	3726.0
4.681	3727.0
4.682	3728.0
4.683	3729.0
4.684	3730.0
4.685	3731.0
4.686	3732.0
4.687	3733.0
4.688	3734.0
4.689	3735.0
4.690	3736.0
4.691	3737.0
4.692	3738.0
4.693	3739.0
4.694	3740.0
4.695	3741.0
4.696	3742.0
4.697	3743.0
4.698	3744.0
4.699	3745.0
4.700	3746.0
4.701	3747.0
4.702	3748.0
4.703	3749.0
4.704	3750.0
4.705	3751.0
4.706	3752.0
4.707	3753.0
4.708	3754.0
4.709	3755.0
4.710	3756.0
4.711	3757.0
4.712	3758.0
4.713	3759.0
4.714	3760.0
4.715	3761.0
4.716	3762.0
4.717	3763.0
4.718	3764.0
4.719	3765.0
4.720	3766.0
4.721	3767.0
4.722	3768.0
4.723	3769.0
4.724	3770.0
4.725	3771.0
4.726	3772.0
4.727	3773.0
4.728	3774.0
4.729	3775.0
4.730	3776.0
4.731	3777.0
4.732	3778.0
4.733	3779.0
4.734	3780.0
4.735	3781.0
4.736	3782.0
4.737	3783.0
4.738	3784.0
4.739	3785.0
4.740	3786.0
4.741	3787.0
4.742	3788.0
4.743	3789.0
4.744	3790.0
4.745	3791.0
4.746	3792.0
4.747	3793.0
4.748	3794.0
4.749	3795.0
4.750	3796.0
4.751	3797.0
4.752	3798.0
4.753	3799.0
4.754	3800.0
4.755	3801.0
4.756	3802.0
4.757	3803.0
4.758	3804.0
4.759	3805.0
4.760	3806.0
4.761	3807.0
4.762	3808.0
4.763	3809.0
4.764	3810.0
4.765	3811.0
4.766	3812.0
4.767	3813.0
4.768	3814.0
4.769	3815.0
4.770	3816.0
4.771	3817.0
4.772	3818.0
4.773	3819.0
4.774	3820.0
4.775	3821.0
4.776	3822.0
4.777	3823.0
4.778	3824.0
4.779	3825.0
4.780	3826.0
4.781	3827.0
4.782	3828.0
4.783	3829.0
4.784	3830.0
4.785	3831.0
4.786	3832.0
4.787	3833.0
4.788	3834.0
4.789	3835.0
4.790	3836.0
4.791	3837.0
4.792	3838.0
4.793	3839.0
4.794	3840.0
4.795	3841.0
4.796	3842.0
4.797	3843.0
4.798	3844.0
4.799	3845.0
4.800	3846.0
4.801	3847.0
4.802	3848.0
4.803	3849.0
4.804	3850.0
4.805	3851.0
4.806	3852.0
4.807	3853.0
4.808	3854.0
4.809	3855.0
4.810	3856.0
4.811	3857.0
4.812	3858.0
4.813	3859.0
4.814	3860.0
4.815	3861.0
4.816	3862.0
4.817	3863.0
4.818	3864.0
4.819	3865.0
4.820	3866.0
4.821	3867.0
4.822	3868.0
4.823	3869.0
4.824	3870.0
4.825	3871.0
4.826	3872.0
4.827	3873.0
4.828	3874.0
4.829	3875.0
4.830	3876.0
4.831	3877.0
4.832	3878.0
4.833	3879.0
4.834	3880.0
4.835	3881.0
4.836	3882.0
4.837	3883.0
4.838	3884.0
4.839	3885.0
4.840	3886.0
4.841	3887.0
4.842	3888.0
4.843	3889.0
4.844	3890.0
4.845	3891.0
4.846	3892.0
4.847	3893.0
4.848	3894.0
4.849	3895.0
4.850	3896.0
4.851	3897.0
4.852	3898.0
4.853	3899.0
4.854	3900.0
4.855	3901.0
4.856	3902.0
4.857	3903.0
4.858	3904.0
4.859	3905.0
4.860	3906.0
4.861	3907.0
4.862	3908.0
4.863	3909.0
4.864	3910.0
4.865	3911.0
4.866	3912.0
4.867	3913.0
4.868	3914.0
4.869	3915.0
4.870	3916.0
4.871	3917.0
4.872	3918.0
4.873	3919.0
4.874	3920.0
4.875	3921.0
4.876	3922.0
4.877	3923.0
4.878	3924.0
4.879	3925.0
4.880	3926.0
4.881	3927.0
4.882	3928.0
4.883	3929.0
4.884	3930.0
4.885	3931.0
4.886	3932.0
4.887	3933.0
4.888	3934.0
4.889	3935.0
4.890	3936.0
4.891	3937.0
4.892	3938.0
4.893	3939.0
4.894	3940.0
4.895	3941.0
4.896	3942.0
4.897	3943.0
4.898	3944.0
4.899	3945.0
4.900	3946.0
4.901	3947.0
4.902	3948.0
4.903	3949.0
4.904	3950.0
4.905	3951.0
4.906	3952.0
4.907	3953.0
4.908	3954.0
4.909	3955.0
4.910	3956.0
4.911	3957.0
4.912	3958.0
4.913	3959.0
4.914	3960.0
4.915	3961.0
4.916	3962.0
4.917	3963.0
4.918	3964.0
4.919	3965.0
4.920	3966.0
4.921	3967.0
4.922	3968.0
4.923	3969.0
4.924	3970.0
4.925	3971.0
4.926	3972.0
4.927	3973.0
4.928	3974.0
4.929	3975.0
4.930	3976.0
4.931	3977.0
4.932	3978.0
4.933	3979.0
4.934	3980.0
4.935	3981.0
4.936	3982.0
4.937	3983.0
4.938	3984.0
4.939	3985.0
4.940	3986.0
4.941	3987.0
4.942	3988.0
4.943	3989.0
4.944	3990.0
4.945	3991.0
4.946	3992.0
4.947	3993.0
4.948	3994.0
4.949	3995.0
4.950	3996.0
4.951	3997.0
4.952	3998.0
4.953	3999.0
4.954	4000.0
4.955	4001.0
4.956	4002.0
4.957	4003.0
4.958	4004.0
4.959	4005.0
4.960	4006.0
4.961	4007.0
4.962	4008.0
4.963	4009.0
4.964	4010.0
4.965	4011.0
4.966	4012.0
4.967	4013.0
4.968	4014.0
4.969	4015.0
4.970	4016.0
4.971	4017.0
4.972	4018.0
4.973	4019.0
4.974	4020.0
4.975	4021.0
4.976	4022.0
4.977	4023.0
4.978	4024.0
4.979	4025.0
4.980	4026.0
4.981	4027.0
4.982	4028.0
4.983	4029.0
4.984	4030.0
4.985	4031.0
4.986	4032.0
4.987	4033.0
4.988	4034.0
4.989	4035.0
4.990	4036.0
4.991	4037.0
4.992	4038.0
4.993	4039.0
4.994	4040.0
4.995	4041.0
4.996	4042.0
4.997	4043.0
4.998	4044.0
4.999	4045.0
5.000	4046.0
5.001	4047.0
5.002	4048.0
5.003	4049.0
5.004	4050.0
5.005	4051.0
5.006	4052.0
5.007	4053.0
5.008	4054.0
5.009	4055.0
5.010	4056.0
5.011	4057.0
5.012	4058.0
5.013	4059.0
5.014	4060.0
5.015	4061.0
5.016	4062.0
5.017	4063.0
5.018	4064.0
5.019	4065.0
5.020	4066.0
5.021	4067.0
5.022	4068.0
5.023	4069.0
5.024	4070.0
5.025	4071.0
5.026	4072.0
5.027	4073.0
5.028	4074.0
5.029	4075.0
5.030	4076.0
5.031	4077.0
5.032	4078.0
5.033	4079.0
5.034	4080.0
5.035	4081.0
5.036	4082.0
5.037	4083.0
5.038	4084.0
5.039	4085.0
5.040	4086.0
5.041	4087.0
5.042	4088.0
5.043	4089.0
5.044	4090.0
5.045	4091.0
5.046	4092.0
5.047	4093.0
5.048	4094.0
5.049	4095.0
5.050	4094.0
5.051	4093.0
5.052	4092.0
5.053	4091.0
5.054	4090.0
5.055	4089.0
5.056	4088.0
5.057	4087.0
5.058	4086.0
5.059	4085.0
5.060	4084.0
5.061	4083.0
5.062	4082.0
5.063	4081.0
5.064	4080.0
5.065	4079.0
5.066	4078.0
5.067	4077.0
5.068	4076.0
5.069	4075.0
5.070	4074.0
5.071	4073.0
5.072	4072.0
5.073	4071.0
5.074	4070.0
5.075	4069.0
5.076	4068.0
5.077	4067.0
5.078	4066.0
5.079	4065.0
5.080	4064.0
5.081	4063.0
5.082	4062.0
5.083	4061.0
5.084	4060.0
5.085	4059.0
5.086	4058.0
5.087	4057.0
5.088	4056.0
5.089	4055.0
5.090	4054.0
5.091	4053.0
5.092	4052.0
5.093	4051.0
5.094	4050.0
5.095	4049.0
5.096	4048.0
5.097	4047.0
5.098	4046.0
5.099	4045.0
5.100	4044.0
5.101	4043.0
5.102	4042.0
5.103	4041.0
5.104	4040.0
5.105	4039.0
5.106	4038.0
5.107	4037.0
5.108	4036.0
5.109	4035.0
5.110	4034.0
5.111	4033.0
5.112	4032.0
5.113	4031.0
5.114	4030.0
5.115	4029.0
5.116	4028.0
5.117	4027.0
5.118	4026.0
5.119	4025.0
5.120	4024.0
5.121	4023.0
5.122	4022.0
5.123	4021.0
5.124	4020.0
5.125	4019.0
5.126	4018.0
5.127	4017.0
5.128	4016.0
5.129	4015.0
5.130	4014.0
5.131	4013.0
5.132	4012.0
5.133	4011.0
5.134	4010.0
5.135	4009.0
5.136	4008.0
5.137	4007.0
5.138	4006.0
5.139	4005.0
5.140	4004.0
5.141	4003.0
5.142	4002.0
5.143	4001.0
5.144	4000.0
5.145	3999.0
5.146	3998.0
5.147	3997.0
5.148	3996.0
5.149	3995.0
5.150	3994.0
5.151	3993.0
5.152	3992.0
5.153	3991.0
5.154	3990.0
5.155	3989.0
5.156	3988.0
5.157	3987.0
5.158	3986.0
5.159	3985.0
5.160	3984.0
5.161	3983.0
5.162	3982.0
5.163	3981.0
5.164	3980.0
5.165	3979.0
5.166	3978.0
5.167	3977.0
5.168	3976.0
5.169	3975.0
5.170	3974.0
5.171	3973.0
5.172	3972.0
5.173	3971.0
5.174	3970.0
5.175	3969.0
5.176	3968.0
5.177	3967.0
5.178	3966.0
5.179	3965.0
5.180	3964.0
5.181	3963.0
5.182	3962.0
5.183	3961.0
5.184	3960.0
5.185	3959.0
5.186	3958.0
5.187	3957.0
5.188	3956.0
5.189	3955.0
5.190	3954.0
5.191	3953.0
5.192	3952.0
5.193	3951.0
5.194	3950.0
5.195	3949.0
5.196	3948.0
5.197	3947.0
5.198	3946.0
5.199	3945.0
5.200	3944.0
5.201	3943.0
5.202	3942.0
5.203	3941.0
5.204	3940.0
5.205	3939.0
5.206	3938.0
5.207	3937.0
5.208	3936.0
5.209	3935.0
5.210	3934.0
5.211	3933.0
5.212	3932.0
5.213	3931.0
5.214	3930.0
5.215	3929.0
5.216	3928.0
5.217	3927.0
5.218	3926.0
5.219	3925.0
5.220	3924.0
5.221	3923.0
5.222	3922.0
5.223	3921.0
5.224	3920.0
5.225	3919.0
5.226	3918.0
5.227	3917.0
5.228	3916.0
5.229	3915.0
5.230	3914.0
5.231	3913.0
5.232	3912.0
5.233	3911.0
5.234	3910.0
5.235	3909.0
5.236	3908.0
5.237	3907.0
5.238	3906.0
5.239	3905.0
5.240	3904.0
5.241	3903.0
5.242	3902.0
5.243	3901.0
5.244	3900.0
5.245	3899.0
5.246	3898.0
5.247	3897.0
5.248	3896.0
5.249	3895.0
5.250	3894.0
5.251	3893.0
5.252	3892.0
5.253	3891.0
5.254	3890.0
5.255	3889.0
5.256	3888.0
5.257	3887.0
5.258	3886.0
5.259	3885.0
5.260	3884.0
5.261	3883.0
5.262	3882.0
5.263	3881.0
5.264	3880.0
5.265	3879.0
5.266	3878.0
5.267	3877.0
5.268	3876.0
5.269	3875.0
5.270	3874.0
5.271	3873.0
5.272	3872.0
5.273	3871.0
5.274	3870.0
5.275	3869.0
5.276	3868.0
5.277	3867.0
5.278	3866.0
5.279	3865.0
5.280	3864.0
5.281	3863.0
5.282	3862.0
5.283	3861.0
5.284	3860.0
5.285	3859.0
5.286	3858.0
5.287	3857.0
5.288	3856.0
5.289	3855.0
5.290	3854.0
5.291	3853.0
5.292	3852.0
5.293	3851.0
5.294	3850.0
